---
Mammal:            mouse
Fs:                1000
Integration_level: electrocardiogram

Channels:

    - type:   electrography
      name:   Data
      unit:   mV
      enable: yes

---

-0.003022
-0.013024
-0.020994
-0.013024
0.002969
0.002969
-0.010002
-0.016045
-0.008023
-0.004011
-0.011044
-0.015003
-0.014014
-0.013024
-0.013024
-0.008023
-0.002032
-0.006043
-0.028027
-0.057044
-0.070016
-0.062045
-0.054023
-0.055012
-0.046000
-0.028027
-0.027037
-0.040999
-0.042041
-0.025995
-0.016045
-0.015003
-0.010002
-0.002032
-0.008023
-0.027037
-0.040009
-0.037040
-0.023026
-0.010002
-0.017035
-0.040009
-0.050011
-0.033028
-0.014014
-0.018025
-0.030007
-0.025995
-0.018025
-0.030007
-0.048032
-0.035008
-0.003022
-0.009012
-0.103044
-0.408009
-1.096029
-1.969038
-2.267022
-1.470019
-0.146023
0.613003
0.492976
0.079966
-0.098043
-0.062045
-0.013024
0.005001
0.031986
0.062983
0.072985
0.066994
0.064963
0.076997
0.085957
0.082987
0.084967
0.107003
0.131957
0.134978
0.121955
0.114974
0.118985
0.121955
0.118985
0.112994
0.102992
0.097991
0.098981
0.097001
0.084967
0.073975
0.068974
0.066004
0.066994
0.069964
0.059961
0.038967
0.022974
0.018963
0.020005
0.016983
0.010002
0.002969
0.005991
0.015993
0.018963
0.012972
0.010992
0.015993
0.011982
-0.010002
-0.033028
-0.035998
-0.020005
-0.008023
-0.013024
-0.027037
-0.028027
-0.012034
0.001980
-0.001042
-0.008023
-0.010002
-0.010002
-0.006043
0.003959
0.006981
-0.001042
-0.006043
-0.001042
0.000000
-0.014014
-0.030997
-0.035008
-0.022036
-0.001042
0.011982
0.006981
-0.002032
0.003959
0.016983
0.016983
0.005001
-0.002032
0.000000
0.002969
0.001980
0.000000
-0.003022
-0.005001
-0.002032
0.000990
-0.002032
-0.005001
0.000990
0.010992
0.015003
0.008960
0.003959
0.002969
-0.001042
-0.010002
-0.014014
-0.008023
0.001980
0.002969
-0.009012
-0.033028
-0.053033
-0.058034
-0.050011
-0.042041
-0.032038
-0.020994
-0.018025
-0.020005
-0.013024
0.006981
0.016983
0.006981
-0.004011
0.000000
0.012972
0.013961
0.003959
-0.003022
-0.002032
-0.002032
-0.008023
-0.014014
-0.014014
-0.012034
-0.011044
-0.017035
-0.025995
-0.025006
-0.017035
-0.020005
-0.025995
0.000000
0.028965
-0.039019
-0.282043
-0.779030
-1.547016
-2.178044
-1.942001
-0.764027
0.394985
0.674996
0.297984
-0.027037
-0.061003
0.005001
0.037977
0.051991
0.066994
0.075955
0.077986
0.080956
0.089968
0.102002
0.113984
0.122997
0.130967
0.135968
0.138990
0.138000
0.128987
0.119975
0.120965
0.131957
0.134978
0.125966
0.114974
0.110963
0.108983
0.102002
0.092990
0.088978
0.086999
0.080956
0.074965
0.071995
0.064963
0.049959
0.039957
0.043968
0.051991
0.046990
0.032976
0.026985
0.034956
0.039957
0.031986
0.021984
0.017973
0.017973
0.016983
0.017973
0.021984
0.025006
0.025006
0.025995
0.022974
0.016983
0.007971
0.005001
0.010992
0.016983
0.015993
0.008960
0.006981
0.011982
0.017973
0.017973
0.015003
0.012972
0.010992
0.006981
0.005991
0.011982
0.020005
0.020005
0.015993
0.012972
0.013961
0.015003
0.016983
0.023964
0.030997
0.030997
0.025995
0.022974
0.023964
0.023964
0.023964
0.029955
0.036988
0.034956
0.025995
0.018963
0.018963
0.021984
0.025006
0.025006
0.023964
0.025006
0.029955
0.035998
0.038967
0.035998
0.030997
0.027975
0.026985
0.026985
0.026985
0.023964
0.020994
0.022974
0.022974
0.005001
-0.019015
-0.020005
-0.002032
0.010002
0.015993
0.025006
0.021984
0.001980
-0.007033
0.012972
0.031986
0.023964
0.001980
-0.007033
0.001980
0.007971
0.002969
0.001980
0.015993
0.029955
0.028965
0.018963
0.012972
0.011982
0.006981
0.002969
0.001980
-0.003022
-0.012034
-0.011044
0.008960
0.035998
0.035998
-0.045010
-0.335024
-0.985014
-1.829007
-2.200028
-1.553997
-0.283033
0.582996
0.570962
0.158004
-0.062045
-0.029017
0.034956
0.046990
0.056992
0.077986
0.088978
0.089968
0.098981
0.113984
0.124976
0.128987
0.135968
0.145970
0.156963
0.164985
0.164985
0.155973
0.149982
0.153003
0.150972
0.141959
0.133989
0.130967
0.127998
0.126956
0.127998
0.121955
0.112994
0.112004
0.112994
0.102992
0.083977
0.071006
0.062983
0.049959
0.038967
0.048969
0.068974
0.067984
0.042978
0.027975
0.037977
0.048969
0.035998
0.016983
0.010002
0.012972
0.023964
0.044958
0.057982
0.042978
0.011982
-0.005001
0.000990
0.013961
0.020994
0.025006
0.033966
0.040999
0.034956
0.016983
0.001980
0.002969
0.022974
0.047980
0.056992
0.042978
0.023964
0.020005
0.022974
0.022974
0.017973
0.020994
0.027975
0.030997
0.027975
0.029955
0.036988
0.036988
0.026985
0.018963
0.020005
0.022974
0.022974
0.020994
0.025006
0.029955
0.029955
0.026985
0.025995
0.022974
0.020005
0.020005
0.027975
0.033966
0.030997
0.025006
0.022974
0.023964
0.023964
0.022974
0.022974
0.021984
0.012972
-0.007033
-0.028027
-0.035008
-0.024016
-0.007033
0.008960
0.020005
0.020994
0.011982
0.010002
0.021984
0.034956
0.034956
0.027975
0.025006
0.023964
0.020005
0.015003
0.016983
0.022974
0.022974
0.018963
0.015003
0.011982
0.008960
0.006981
0.005001
0.002969
0.002969
0.000990
-0.007033
0.000990
0.030997
0.028965
-0.076997
-0.391026
-1.047007
-1.883029
-2.205029
-1.466998
-0.158994
0.640978
0.559970
0.149982
-0.049021
-0.024016
0.035998
0.066994
0.082987
0.089968
0.090958
0.098981
0.112994
0.121955
0.120965
0.119975
0.127998
0.140969
0.151961
0.155973
0.154983
0.151961
0.149982
0.145970
0.138990
0.134978
0.138000
0.139980
0.128987
0.112994
0.107003
0.108983
0.103982
0.097001
0.092990
0.087989
0.079966
0.069964
0.064963
0.066994
0.067984
0.061993
0.053971
0.056002
0.058972
0.051991
0.041989
0.040999
0.044958
0.043968
0.039957
0.038967
0.033966
0.026985
0.026985
0.036988
0.040999
0.030997
0.020994
0.020994
0.025995
0.026985
0.027975
0.030997
0.031986
0.027975
0.025006
0.028965
0.033966
0.033966
0.030997
0.030997
0.028965
0.026985
0.029955
0.037977
0.040999
0.039957
0.040999
0.043968
0.041989
0.035998
0.032976
0.033966
0.037977
0.040999
0.039957
0.036988
0.033966
0.029955
0.032976
0.042978
0.047980
0.041989
0.037977
0.044958
0.051001
0.043968
0.030997
0.023964
0.025006
0.027975
0.027975
0.026985
0.035998
0.048969
0.046000
0.023964
0.005001
0.000000
-0.008023
-0.029017
-0.045010
-0.042041
-0.027037
-0.008023
0.013961
0.023964
0.005991
-0.013024
0.005991
0.051991
0.071995
0.048969
0.021984
0.025995
0.039957
0.036988
0.020005
0.012972
0.020994
0.033966
0.037977
0.031986
0.026985
0.033966
0.039957
0.025006
0.002969
-0.002032
0.000000
-0.005001
0.005001
0.043968
0.059961
-0.022036
-0.301995
-0.936045
-1.811034
-2.238995
-1.589994
-0.270009
0.610971
0.592998
0.200983
-0.003022
0.000000
0.023964
0.033966
0.061993
0.093980
0.107993
0.107993
0.107993
0.107993
0.108983
0.119975
0.146960
0.170976
0.169986
0.158994
0.166965
0.184990
0.184000
0.163995
0.156963
0.167955
0.171966
0.148002
0.115964
0.112994
0.135968
0.143991
0.121955
0.105961
0.113984
0.113984
0.092000
0.078976
0.092000
0.108983
0.102002
0.072985
0.049959
0.049959
0.061993
0.062983
0.049959
0.041989
0.046000
0.054960
0.059961
0.056002
0.039957
0.022974
0.025995
0.053971
0.075955
0.064963
0.038967
0.031986
0.042978
0.048969
0.047980
0.051001
0.053971
0.046000
0.035998
0.036988
0.046000
0.051991
0.049959
0.040999
0.037977
0.052981
0.069964
0.066994
0.051991
0.041989
0.036988
0.031986
0.030997
0.034956
0.038967
0.046000
0.053971
0.053971
0.044958
0.037977
0.039957
0.048969
0.056002
0.053971
0.044958
0.034956
0.034956
0.044958
0.046000
0.034956
0.025995
0.033966
0.044958
0.043968
0.036988
0.040999
0.049959
0.039957
0.010002
-0.010002
-0.006043
0.007971
0.015003
0.020994
0.028965
0.030997
0.025006
0.028965
0.044958
0.057982
0.057982
0.056002
0.056992
0.057982
0.053971
0.051991
0.053971
0.051991
0.040999
0.031986
0.029955
0.027975
0.021984
0.015993
0.012972
0.015003
0.021984
0.022974
0.005991
-0.004011
0.020994
0.049959
0.015993
-0.143001
-0.564034
-1.343012
-2.091045
-2.031032
-0.967041
0.240992
0.678955
0.402956
0.059961
-0.027037
0.023964
0.066994
0.092000
0.109973
0.113984
0.109973
0.112994
0.123986
0.130967
0.134978
0.143001
0.158004
0.167955
0.170976
0.170976
0.169986
0.166965
0.163006
0.163006
0.163995
0.161964
0.158004
0.149982
0.138000
0.124976
0.122997
0.130967
0.133989
0.124976
0.109973
0.099970
0.097001
0.092000
0.078976
0.068974
0.067984
0.071006
0.066994
0.056992
0.053971
0.058972
0.058972
0.053971
0.052981
0.056002
0.054960
0.051001
0.048969
0.046990
0.046990
0.051001
0.056002
0.053971
0.051001
0.052981
0.053971
0.044958
0.035998
0.036988
0.041989
0.037977
0.031986
0.030997
0.032976
0.037977
0.044958
0.052981
0.057982
0.054960
0.046000
0.041989
0.048969
0.056002
0.053971
0.044958
0.042978
0.048969
0.052981
0.048969
0.040999
0.039957
0.047980
0.056002
0.056992
0.051001
0.043968
0.042978
0.048969
0.053971
0.051001
0.044958
0.046990
0.051991
0.053971
0.053971
0.054960
0.051991
0.043968
0.039957
0.043968
0.038967
0.022974
0.015003
0.023964
0.025006
-0.001042
-0.023026
-0.014014
0.000000
-0.003022
0.003959
0.035998
0.056002
0.035998
0.010002
0.012972
0.029955
0.035998
0.031986
0.030997
0.031986
0.034956
0.047980
0.058972
0.051001
0.028965
0.015993
0.020005
0.025006
0.015003
0.000000
0.005001
0.026985
0.043968
0.041989
0.020994
-0.002032
0.002969
0.031986
0.027975
-0.065015
-0.352007
-1.006998
-1.883029
-2.236026
-1.481011
-0.136020
0.673954
0.572994
0.138990
-0.060014
-0.015003
0.064963
0.099970
0.107003
0.099970
0.095959
0.103982
0.120965
0.131957
0.134978
0.134978
0.138000
0.150972
0.166965
0.167955
0.151961
0.149982
0.173998
0.189991
0.175977
0.154983
0.156963
0.167955
0.158004
0.126956
0.102992
0.103982
0.117006
0.124976
0.123986
0.109973
0.085957
0.067984
0.071006
0.081998
0.080956
0.075955
0.074965
0.071995
0.059961
0.049959
0.049959
0.056992
0.061993
0.054960
0.036988
0.027975
0.036988
0.047980
0.046990
0.042978
0.047980
0.053971
0.051001
0.046990
0.051991
0.056992
0.052981
0.046000
0.041989
0.037977
0.033966
0.035998
0.040999
0.037977
0.030997
0.034956
0.046990
0.046990
0.036988
0.031986
0.032976
0.028965
0.026985
0.035998
0.047980
0.046000
0.035998
0.032976
0.034956
0.037977
0.041989
0.048969
0.049959
0.041989
0.030997
0.022974
0.021984
0.022974
0.021984
0.015993
0.010992
0.017973
0.035998
0.048969
0.044958
0.033966
0.029955
0.023964
0.000990
-0.028027
-0.034018
-0.019015
-0.009012
-0.005001
0.007971
0.025006
0.023964
0.007971
0.010002
0.034956
0.053971
0.048969
0.037977
0.037977
0.041989
0.038967
0.030997
0.025995
0.021984
0.020994
0.023964
0.027975
0.026985
0.018963
0.005991
-0.001042
0.002969
0.010992
0.005991
-0.005001
0.003959
0.026985
0.022974
-0.069026
-0.366020
-1.013041
-1.843020
-2.199038
-1.538004
-0.262038
0.596958
0.580965
0.167955
-0.054023
-0.025006
0.043968
0.066004
0.072985
0.081998
0.085957
0.089968
0.097001
0.104972
0.117006
0.138000
0.154983
0.156963
0.150972
0.149982
0.156963
0.163006
0.163006
0.154983
0.144981
0.136958
0.131957
0.128987
0.127998
0.127998
0.120965
0.108983
0.097991
0.095959
0.095959
0.087989
0.077986
0.071006
0.067984
0.063973
0.058972
0.051991
0.049959
0.054960
0.061003
0.061003
0.056002
0.051991
0.048969
0.048969
0.048969
0.042978
0.031986
0.027975
0.035998
0.043968
0.041989
0.036988
0.038967
0.040999
0.035998
0.028965
0.028965
0.027975
0.023964
0.027975
0.041989
0.048969
0.041989
0.033966
0.038967
0.043968
0.040999
0.038967
0.044958
0.047980
0.039957
0.025995
0.020994
0.030997
0.046000
0.053971
0.054960
0.054960
0.053971
0.046990
0.037977
0.034956
0.038967
0.042978
0.041989
0.035998
0.030997
0.026985
0.027975
0.030997
0.033966
0.035998
0.039957
0.041989
0.035998
0.030997
0.037977
0.047980
0.044958
0.027975
0.003959
-0.020005
-0.028027
-0.020005
-0.015003
-0.020994
-0.016045
0.005991
0.022974
0.020994
0.015993
0.021984
0.031986
0.031986
0.020005
0.013961
0.023964
0.042978
0.052981
0.046990
0.033966
0.025006
0.023964
0.025995
0.021984
0.016983
0.017973
0.022974
0.023964
0.020994
0.012972
-0.008023
-0.017035
0.016983
0.042978
-0.055012
-0.382013
-1.027003
-1.856044
-2.227013
-1.532013
-0.188011
0.657961
0.562992
0.138000
-0.030997
0.010992
0.046000
0.049959
0.066004
0.084967
0.095959
0.098981
0.092000
0.090958
0.112004
0.148002
0.170976
0.166965
0.150972
0.143991
0.151961
0.156963
0.145970
0.129977
0.134978
0.156963
0.158004
0.122997
0.090958
0.095959
0.123986
0.134978
0.121955
0.104972
0.094969
0.090958
0.085957
0.075955
0.061993
0.056002
0.063973
0.066994
0.053971
0.041989
0.043968
0.042978
0.022974
0.008960
0.020005
0.039957
0.043968
0.037977
0.042978
0.047980
0.032976
0.005991
-0.005001
0.015003
0.046000
0.063973
0.056992
0.033966
0.017973
0.016983
0.022974
0.022974
0.023964
0.033966
0.046000
0.046000
0.034956
0.027975
0.033966
0.046000
0.047980
0.037977
0.033966
0.039957
0.043968
0.034956
0.025006
0.023964
0.025006
0.022974
0.016983
0.011982
0.011982
0.013961
0.005991
-0.020005
-0.051001
-0.059024
-0.035998
-0.001042
0.021984
0.030997
0.038967
0.047980
0.051001
0.044958
0.036988
0.033966
0.034956
0.037977
0.039957
0.037977
0.034956
0.031986
0.029955
0.026985
0.025006
0.022974
0.016983
0.010002
0.008960
0.010002
0.005991
0.005991
0.026985
0.038967
-0.042041
-0.325021
-0.908018
-1.696008
-2.151996
-1.668033
-0.436036
0.544967
0.642958
0.232969
-0.040009
-0.047042
0.012972
0.041989
0.059961
0.073975
0.079966
0.084967
0.093980
0.105961
0.117995
0.131957
0.144981
0.153993
0.155973
0.153993
0.150972
0.148002
0.148002
0.150972
0.153003
0.145970
0.138990
0.139980
0.139980
0.125966
0.105961
0.097001
0.098981
0.098981
0.093980
0.090958
0.089968
0.087989
0.083977
0.078976
0.071995
0.059961
0.051991
0.051001
0.052981
0.051991
0.051001
0.052981
0.053971
0.051001
0.047980
0.047980
0.044958
0.038967
0.033966
0.032976
0.033966
0.033966
0.025995
0.015993
0.017973
0.033966
0.048969
0.051001
0.047980
0.043968
0.034956
0.023964
0.012972
-0.008023
-0.042041
-0.068036
-0.063035
-0.030997
-0.002032
0.012972
0.025995
0.047980
0.062983
0.059961
0.049959
0.048969
0.049959
0.043968
0.040999
0.047980
0.051991
0.043968
0.039957
0.046990
0.046990
0.035998
0.032976
0.037977
0.034956
0.025995
0.022974
0.015003
0.003959
0.020994
0.051991
0.020005
-0.127008
-0.493028
-1.218035
-2.034001
-2.138035
-1.144998
0.156963
0.695001
0.399986
-0.007033
-0.108045
-0.040999
0.005001
0.032976
0.074965
0.099970
0.089968
0.077986
0.092000
0.118985
0.133989
0.132999
0.127998
0.129977
0.141959
0.154983
0.158994
0.156963
0.150972
0.139980
0.129977
0.126956
0.124976
0.114974
0.107003
0.109973
0.114974
0.104972
0.080956
0.061993
0.057982
0.058972
0.058972
0.061003
0.063973
0.061003
0.054960
0.056002
0.057982
0.046990
0.033966
0.033966
0.041989
0.042978
0.040999
0.037977
0.029955
0.020005
0.023964
0.039957
0.046000
0.037977
0.026985
0.022974
0.020005
0.018963
0.023964
0.025006
0.017973
0.015993
0.018963
0.001980
-0.047042
-0.093042
-0.097001
-0.063035
-0.019015
0.020005
0.049959
0.062983
0.054960
0.038967
0.033966
0.040999
0.042978
0.041989
0.047980
0.056992
0.056992
0.048969
0.044958
0.046000
0.044958
0.037977
0.027975
0.020994
0.022974
0.031986
0.036988
0.029955
0.013961
0.005991
0.027975
0.048969
-0.008023
-0.204994
-0.651032
-1.447045
-2.217011
-2.122042
-0.940004
0.345964
0.717975
0.319968
-0.069026
-0.132009
-0.055012
-0.005001
0.015993
0.033966
0.051001
0.066994
0.081998
0.092000
0.098981
0.107003
0.119975
0.128987
0.133989
0.139980
0.148992
0.153993
0.153003
0.148002
0.141959
0.138000
0.138000
0.133989
0.124976
0.118985
0.117006
0.112994
0.109973
0.108983
0.103982
0.092000
0.080956
0.074965
0.071006
0.066994
0.062983
0.059961
0.053971
0.049959
0.048969
0.048969
0.046990
0.042978
0.042978
0.048969
0.048969
0.037977
0.025995
0.025995
0.034956
0.040999
0.038967
0.037977
0.036988
0.032976
0.026985
0.023964
0.016983
0.003959
-0.014014
-0.038029
-0.071006
-0.093042
-0.081998
-0.044020
-0.012034
0.005001
0.020994
0.036988
0.036988
0.025995
0.022974
0.032976
0.042978
0.044958
0.043968
0.041989
0.037977
0.027975
0.020005
0.017973
0.017973
0.013961
0.010002
0.012972
0.018963
0.018963
0.017973
0.015003
0.005001
0.003959
0.029955
0.036988
-0.047042
-0.308038
-0.893014
-1.735027
-2.196017
-1.599997
-0.285012
0.619984
0.586955
0.143991
-0.089031
-0.071006
-0.014014
0.013961
0.039957
0.064963
0.082987
0.092000
0.092000
0.090958
0.102992
0.121955
0.126956
0.120965
0.123986
0.138000
0.143991
0.132999
0.124976
0.131957
0.140969
0.138000
0.127998
0.122997
0.117995
0.109973
0.107003
0.109973
0.109973
0.104972
0.102002
0.098981
0.089968
0.076997
0.067984
0.066994
0.066994
0.061003
0.051001
0.051001
0.059961
0.064963
0.061993
0.056992
0.053971
0.051001
0.049959
0.051001
0.053971
0.059961
0.059961
0.051001
0.041989
0.043968
0.049959
0.052981
0.048969
0.040999
0.034956
0.037977
0.041989
0.025006
-0.019015
-0.060014
-0.066994
-0.037040
-0.002032
0.018963
0.027975
0.039957
0.053971
0.061003
0.056002
0.047980
0.043968
0.039957
0.033966
0.033966
0.037977
0.030997
0.018963
0.016983
0.025995
0.031986
0.025006
0.017973
0.020005
0.025995
0.021984
0.016983
0.020005
0.017973
0.015993
0.032976
0.034956
-0.035998
-0.242034
-0.745012
-1.589994
-2.221022
-1.828017
-0.533037
0.521993
0.610971
0.175977
-0.086009
-0.079028
-0.030007
-0.008023
0.029955
0.071006
0.082987
0.071995
0.067984
0.079966
0.097991
0.110963
0.119975
0.131957
0.140969
0.138990
0.132999
0.129977
0.129977
0.131957
0.138990
0.145970
0.143991
0.131957
0.123986
0.126956
0.127998
0.112994
0.087989
0.073975
0.075955
0.078976
0.075955
0.074965
0.077986
0.075955
0.064963
0.051991
0.051001
0.056992
0.053971
0.034956
0.025995
0.035998
0.044958
0.041989
0.044958
0.056992
0.049959
0.018963
0.003959
0.026985
0.056992
0.061003
0.048969
0.039957
0.035998
0.032976
0.029955
0.022974
0.006981
-0.016045
-0.042041
-0.059024
-0.055012
-0.038029
-0.020005
0.001980
0.033966
0.061003
0.061003
0.041989
0.033966
0.041989
0.051991
0.051991
0.049959
0.054960
0.056002
0.048969
0.043968
0.044958
0.046990
0.046990
0.048969
0.047980
0.041989
0.033966
0.027975
0.021984
0.013961
0.010992
0.025995
0.053971
0.030997
-0.154045
-0.622015
-1.392033
-2.100005
-2.039002
-0.974022
0.284960
0.736989
0.386962
-0.025006
-0.112004
-0.044020
0.000000
0.025006
0.051991
0.066994
0.073975
0.084967
0.098981
0.107993
0.117006
0.125966
0.133989
0.136958
0.139980
0.146960
0.153993
0.150972
0.139980
0.128987
0.123986
0.124976
0.130967
0.138000
0.136958
0.122997
0.107993
0.104972
0.107003
0.100960
0.083977
0.071995
0.071006
0.073975
0.074965
0.072985
0.064963
0.054960
0.047980
0.048969
0.053971
0.054960
0.051991
0.044958
0.040999
0.041989
0.048969
0.051001
0.043968
0.036988
0.035998
0.036988
0.033966
0.029955
0.029955
0.031986
0.029955
0.018963
-0.005001
-0.042041
-0.080018
-0.097001
-0.078038
-0.037040
-0.008023
0.006981
0.023964
0.041989
0.040999
0.026985
0.025995
0.035998
0.040999
0.035998
0.035998
0.040999
0.035998
0.022974
0.016983
0.025995
0.032976
0.026985
0.015993
0.012972
0.013961
0.012972
0.012972
0.008960
-0.001042
0.003959
0.028965
0.015003
-0.107003
-0.416031
-1.047007
-1.859013
-2.151006
-1.369007
-0.056002
0.667963
0.490996
0.057982
-0.102002
-0.055012
-0.010002
0.005991
0.030997
0.056992
0.068974
0.073975
0.083977
0.095959
0.105961
0.114974
0.121955
0.125966
0.129977
0.139980
0.149982
0.149982
0.139980
0.128987
0.123986
0.120965
0.115964
0.112004
0.114974
0.115964
0.104972
0.092000
0.086999
0.082987
0.073975
0.067984
0.071006
0.072985
0.064963
0.057982
0.061993
0.066994
0.061003
0.049959
0.046990
0.051001
0.056002
0.051001
0.034956
0.022974
0.028965
0.039957
0.037977
0.026985
0.031986
0.046000
0.044958
0.027975
0.017973
0.021984
0.018963
-0.006043
-0.052043
-0.094032
-0.094032
-0.049021
-0.006043
0.003959
0.003959
0.020994
0.042978
0.052981
0.056002
0.057982
0.051991
0.039957
0.037977
0.041989
0.039957
0.033966
0.032976
0.034956
0.032976
0.030997
0.029955
0.020005
0.002969
-0.001042
0.012972
0.027975
0.025006
0.013961
0.013961
0.028965
0.020994
-0.085019
-0.416031
-1.083005
-1.892042
-2.180023
-1.437043
-0.141021
0.633997
0.506989
0.062983
-0.130029
-0.094032
-0.042041
-0.017035
0.008960
0.025995
0.032976
0.047980
0.073975
0.093980
0.098981
0.097001
0.099970
0.109973
0.114974
0.113984
0.117006
0.122997
0.120965
0.115964
0.119975
0.127998
0.121955
0.107003
0.102002
0.110963
0.112004
0.097001
0.077986
0.069964
0.067984
0.056002
0.039957
0.044958
0.062983
0.067984
0.057982
0.046000
0.037977
0.037977
0.051001
0.061993
0.051991
0.037977
0.038967
0.046000
0.043968
0.034956
0.030997
0.032976
0.034956
0.033966
0.030997
0.023964
0.020005
0.022974
0.032976
0.036988
0.018963
-0.022036
-0.066994
-0.084029
-0.066994
-0.035008
-0.002032
0.025995
0.046000
0.057982
0.064963
0.064963
0.056992
0.049959
0.049959
0.052981
0.051991
0.051001
0.052981
0.051991
0.041989
0.028965
0.021984
0.023964
0.030997
0.033966
0.027975
0.018963
0.018963
0.020005
0.007971
0.001980
0.033966
0.051001
-0.068036
-0.407019
-1.019032
-1.786028
-2.146005
-1.514040
-0.224999
0.635977
0.572994
0.131957
-0.084029
-0.066004
-0.020994
0.002969
0.032976
0.056992
0.066994
0.077986
0.088978
0.092990
0.095959
0.110963
0.129977
0.135968
0.132999
0.134978
0.146960
0.155973
0.150972
0.138000
0.127998
0.126956
0.126956
0.122997
0.119975
0.119975
0.115964
0.107993
0.102992
0.104972
0.102992
0.094969
0.084967
0.074965
0.063973
0.054960
0.051991
0.051001
0.044958
0.038967
0.039957
0.043968
0.047980
0.051991
0.047980
0.034956
0.026985
0.030997
0.034956
0.031986
0.028965
0.030997
0.029955
0.025006
0.022974
0.020994
0.008960
-0.013024
-0.042041
-0.074027
-0.086999
-0.065015
-0.023026
0.003959
0.015003
0.030997
0.051001
0.052981
0.039957
0.034956
0.044958
0.052981
0.051991
0.048969
0.040999
0.030997
0.022974
0.022974
0.027975
0.030997
0.029955
0.025995
0.025995
0.027975
0.027975
0.030997
0.033966
0.030997
0.028965
0.037977
0.038967
-0.028027
-0.291003
-0.909007
-1.744040
-2.139025
-1.515030
-0.250004
0.606960
0.570962
0.127998
-0.109035
-0.074027
0.007971
0.037977
0.049959
0.061993
0.073975
0.084967
0.097001
0.102002
0.104972
0.109973
0.117006
0.120965
0.125966
0.128987
0.120965
0.104972
0.102002
0.122997
0.148992
0.156963
0.143001
0.122997
0.107993
0.098981
0.094969
0.090958
0.089968
0.092990
0.092000
0.075955
0.054960
0.049959
0.061993
0.064963
0.051991
0.041989
0.041989
0.041989
0.039957
0.036988
0.031986
0.033966
0.047980
0.058972
0.049959
0.036988
0.041989
0.054960
0.058972
0.051991
0.046990
0.042978
0.034956
0.026985
0.027975
0.035998
0.040999
0.042978
0.046990
0.053971
0.052981
0.037977
0.020005
0.010002
-0.002032
-0.025995
-0.044020
-0.037040
-0.013024
0.001980
0.010002
0.026985
0.052981
0.062983
0.049959
0.037977
0.044958
0.053971
0.044958
0.031986
0.039957
0.056002
0.053971
0.037977
0.036988
0.056002
0.061003
0.038967
0.015993
0.017973
0.033966
0.041989
0.037977
0.025995
0.018963
0.033966
0.037977
-0.022036
-0.175040
-0.551010
-1.325039
-2.158039
-2.158039
-1.018042
0.297984
0.725997
0.362999
-0.022036
-0.101012
-0.052043
-0.024016
-0.001042
0.038967
0.067984
0.071006
0.071995
0.086999
0.105961
0.115964
0.122997
0.127998
0.132999
0.135968
0.143001
0.151961
0.154983
0.149982
0.138990
0.131957
0.132999
0.134978
0.128987
0.120965
0.117006
0.115964
0.107993
0.097991
0.093980
0.094969
0.092000
0.087989
0.085957
0.082987
0.075955
0.066004
0.056992
0.051991
0.047980
0.040999
0.033966
0.037977
0.048969
0.046990
0.033966
0.030997
0.043968
0.058972
0.062983
0.056002
0.044958
0.036988
0.036988
0.041989
0.046990
0.048969
0.047980
0.039957
0.028965
0.020005
0.015993
0.012972
0.018963
0.029955
0.022974
-0.014014
-0.056002
-0.069026
-0.052043
-0.030997
-0.016045
0.000000
0.017973
0.030997
0.034956
0.034956
0.038967
0.046000
0.051991
0.051001
0.043968
0.036988
0.032976
0.026985
0.016983
0.013961
0.020005
0.023964
0.020994
0.015003
0.015003
0.018963
0.021984
0.017973
0.000000
-0.009012
0.018963
0.044958
-0.040009
-0.339035
-0.935003
-1.726015
-2.155018
-1.597027
-0.320020
0.601959
0.593988
0.149982
-0.086009
-0.059024
0.003959
0.025006
0.042978
0.061993
0.071995
0.075955
0.086999
0.100960
0.107993
0.109973
0.117006
0.125966
0.129977
0.131957
0.134978
0.132999
0.122997
0.114974
0.117995
0.124976
0.126956
0.124976
0.119975
0.108983
0.097991
0.093980
0.092990
0.089968
0.084967
0.078976
0.068974
0.056002
0.051001
0.051991
0.054960
0.051991
0.044958
0.037977
0.031986
0.030997
0.030997
0.033966
0.038967
0.046990
0.051001
0.046000
0.040999
0.039957
0.043968
0.043968
0.035998
0.025995
0.025995
0.038967
0.054960
0.057982
0.046000
0.030997
0.025995
0.029955
0.030997
0.026985
0.026985
0.034956
0.039957
0.033966
0.023964
0.020994
0.023964
0.027975
0.028965
0.027975
0.028965
0.036988
0.044958
0.042978
0.030997
0.021984
0.021984
0.025006
0.025995
0.028965
0.032976
0.034956
0.033966
0.030997
0.027975
0.025006
0.026985
0.028965
0.026985
0.020005
0.017973
0.026985
0.036988
0.032976
0.016983
0.006981
0.005991
0.008960
0.008960
0.011982
0.016983
0.020994
0.021984
0.020005
0.016983
0.012972
0.012972
0.022974
0.034956
0.030997
0.011982
-0.003022
-0.010002
-0.017035
-0.027037
-0.035998
-0.043031
-0.040999
-0.020005
0.005001
0.010992
0.007971
0.010002
0.013961
0.015003
0.018963
0.025995
0.028965
0.029955
0.032976
0.033966
0.029955
0.022974
0.015993
0.012972
0.010002
0.010002
0.015003
0.018963
0.015993
0.010002
0.010002
0.013961
0.010002
0.006981
0.020005
0.018963
-0.074027
-0.367010
-0.984024
-1.806033
-2.210030
-1.588015
-0.287044
0.601959
0.574974
0.153003
-0.061003
-0.047042
-0.007033
0.020994
0.066004
0.102002
0.104972
0.089968
0.074965
0.073975
0.089968
0.110963
0.117006
0.112994
0.115964
0.130967
0.143001
0.138000
0.123986
0.117006
0.122997
0.120965
0.105961
0.100960
0.117006
0.122997
0.093980
0.057982
0.054960
0.079966
0.089968
0.071006
0.041989
0.025995
0.025995
0.029955
0.030997
0.030997
0.033966
0.027975
0.010992
-0.002032
-0.001042
0.005001
0.006981
0.010992
0.015003
0.015993
0.015993
0.016983
0.011982
0.002969
0.000000
0.000990
0.000990
-0.002032
-0.005001
-0.008023
-0.009012
0.000000
0.013961
0.023964
0.025006
0.018963
0.007971
0.000000
0.005001
0.015993
0.020005
0.015003
0.010992
0.007971
0.003959
0.002969
0.006981
0.008960
0.003959
0.003959
0.012972
0.020005
0.015003
0.005001
0.005001
0.010992
0.008960
-0.001042
-0.009012
-0.008023
-0.004011
-0.003022
-0.006043
-0.012034
-0.018025
-0.024016
-0.030997
-0.042041
-0.055012
-0.063035
-0.056002
-0.040999
-0.030007
-0.024016
-0.012034
0.005001
0.010002
0.001980
-0.002032
0.008960
0.020005
0.021984
0.016983
0.011982
0.007971
0.002969
-0.002032
-0.002032
0.000000
0.001980
-0.006043
-0.019015
-0.025995
-0.025995
-0.025006
-0.027037
-0.025006
-0.010002
0.008960
-0.018025
-0.202025
-0.688020
-1.469030
-2.110997
-1.944033
-0.870040
0.281991
0.656971
0.337993
-0.009012
-0.073037
-0.010002
0.023964
0.038967
0.056992
0.062983
0.062983
0.071006
0.084967
0.093980
0.095959
0.097991
0.102002
0.109973
0.120965
0.129977
0.131957
0.127998
0.122997
0.120965
0.117006
0.107003
0.098981
0.098981
0.102992
0.097001
0.082987
0.066994
0.054960
0.051991
0.054960
0.048969
0.033966
0.025995
0.030997
0.032976
0.026985
0.020005
0.016983
0.017973
0.016983
0.011982
0.005001
0.005001
0.012972
0.016983
0.010992
0.002969
0.002969
0.008960
0.010002
0.008960
0.011982
0.015003
0.011982
0.005001
0.003959
0.008960
0.012972
0.013961
0.011982
0.012972
0.015993
0.015993
0.005991
-0.001042
0.002969
0.008960
0.008960
0.010002
0.010992
0.005991
0.000990
0.005991
0.012972
0.012972
0.013961
0.016983
0.016983
0.015003
0.013961
0.013961
0.012972
0.012972
0.020994
0.028965
0.026985
0.020005
0.015003
0.013961
0.015993
0.020005
0.015993
-0.002032
-0.022036
-0.025006
-0.023026
-0.032038
-0.034018
-0.014014
0.000990
-0.012034
-0.029017
-0.023026
-0.002032
0.011982
0.018963
0.023964
0.021984
0.010992
0.005991
0.013961
0.022974
0.020005
0.010002
0.005991
0.006981
0.001980
-0.002032
0.000000
0.005001
0.008960
0.012972
0.010002
-0.004011
-0.006043
0.023964
0.040999
-0.020994
-0.232032
-0.751003
-1.594996
-2.219043
-1.864015
-0.616025
0.472971
0.655981
0.255005
-0.047042
-0.066004
0.005001
0.041989
0.049959
0.053971
0.066004
0.085957
0.097991
0.094969
0.094969
0.107993
0.124976
0.130967
0.128987
0.128987
0.131957
0.136958
0.138990
0.128987
0.119975
0.126956
0.134978
0.123986
0.109973
0.112994
0.117995
0.104972
0.087989
0.088978
0.089968
0.071995
0.047980
0.046990
0.068974
0.079966
0.062983
0.035998
0.025006
0.029955
0.033966
0.027975
0.015993
0.011982
0.017973
0.022974
0.022974
0.025995
0.031986
0.026985
0.010002
0.005001
0.017973
0.027975
0.022974
0.016983
0.021984
0.023964
0.012972
0.000990
0.001980
0.008960
0.010002
0.011982
0.022974
0.028965
0.015993
0.000990
0.006981
0.026985
0.030997
0.012972
-0.005001
0.005001
0.031986
0.043968
0.032976
0.021984
0.016983
0.010992
0.001980
-0.005001
-0.010002
-0.009012
0.008960
0.028965
0.029955
0.016983
0.005991
0.003959
-0.001042
-0.014014
-0.030007
-0.037040
-0.034018
-0.034018
-0.029017
-0.011044
0.002969
0.000000
-0.002032
0.013961
0.031986
0.026985
0.010002
0.005991
0.015003
0.022974
0.020994
0.020005
0.021984
0.020005
0.008960
-0.002032
-0.002032
0.001980
-0.001042
-0.009012
-0.010002
-0.009012
-0.008023
-0.011044
-0.019015
-0.016045
0.012972
0.015003
-0.120027
-0.500009
-1.182038
-1.937000
-2.114019
-1.280029
0.000990
0.676976
0.493966
0.084967
-0.058034
-0.015003
0.022974
0.040999
0.066004
0.078976
0.076997
0.080956
0.092990
0.098981
0.094969
0.097001
0.108983
0.117006
0.118985
0.123986
0.128987
0.129977
0.125966
0.122997
0.120965
0.117006
0.114974
0.114974
0.112994
0.104972
0.092990
0.081998
0.073975
0.066004
0.057982
0.054960
0.054960
0.054960
0.051991
0.047980
0.039957
0.031986
0.031986
0.036988
0.035998
0.026985
0.015003
0.005001
0.000990
0.003959
0.010002
0.015993
0.020005
0.020994
0.018963
0.015003
0.011982
0.013961
0.016983
0.015993
0.008960
0.001980
0.002969
0.008960
0.010002
0.005001
0.005001
0.011982
0.016983
0.013961
0.010002
0.010992
0.011982
0.007971
0.003959
0.007971
0.015003
0.016983
0.011982
0.005001
0.005001
0.012972
0.020005
0.015993
0.006981
0.005001
0.007971
0.010992
0.013961
0.020005
0.022974
0.018963
0.008960
0.001980
-0.004011
-0.013024
-0.025006
-0.029017
-0.028027
-0.032038
-0.032038
-0.017035
0.000000
0.000990
-0.005001
-0.004011
-0.003022
-0.001042
0.010992
0.020994
0.011982
-0.003022
0.003959
0.025006
0.026985
0.012972
0.006981
0.013961
0.010002
-0.007033
-0.020005
-0.018025
-0.010002
-0.003022
0.005001
0.003959
-0.014014
-0.020005
0.011982
0.020005
-0.108045
-0.460000
-1.097019
-1.865004
-2.154028
-1.425999
-0.127998
0.651970
0.528974
0.097001
-0.094032
-0.066004
-0.001042
0.052981
0.078976
0.069964
0.062983
0.083977
0.097991
0.089968
0.082987
0.088978
0.100960
0.112994
0.124976
0.126956
0.120965
0.119975
0.120965
0.113984
0.102992
0.099970
0.107993
0.113984
0.109973
0.102992
0.100960
0.098981
0.087989
0.063973
0.042978
0.038967
0.040999
0.036988
0.030997
0.033966
0.034956
0.027975
0.021984
0.020005
0.010992
0.000990
0.006981
0.020994
0.015993
-0.002032
-0.001042
0.020994
0.022974
-0.009012
-0.032038
-0.020005
0.002969
0.005991
-0.002032
0.000990
0.008960
0.011982
0.011982
0.013961
0.015003
0.015993
0.018963
0.020005
0.012972
0.001980
0.000000
0.007971
0.012972
0.005001
-0.007033
-0.001042
0.017973
0.013961
-0.028027
-0.075017
-0.086009
-0.066004
-0.047042
-0.038029
-0.020005
0.008960
0.027975
0.022974
0.007971
0.005991
0.020994
0.033966
0.030997
0.020994
0.017973
0.018963
0.020005
0.020994
0.018963
0.005001
-0.012034
-0.014014
-0.003022
0.001980
-0.002032
-0.003022
-0.006043
-0.012034
-0.001042
0.012972
-0.062045
-0.337003
-0.903016
-1.685016
-2.185025
-1.765034
-0.541997
0.491986
0.633997
0.224999
-0.065015
-0.076997
-0.012034
0.018963
0.034956
0.051991
0.064963
0.069964
0.071006
0.074965
0.085957
0.102002
0.107993
0.099970
0.097001
0.112004
0.131957
0.134978
0.122997
0.115964
0.117006
0.117006
0.112004
0.107003
0.104972
0.103982
0.098981
0.085957
0.071006
0.061993
0.058972
0.054960
0.046990
0.037977
0.029955
0.025995
0.030997
0.038967
0.036988
0.023964
0.013961
0.012972
0.011982
0.010992
0.012972
0.015003
0.013961
0.012972
0.012972
0.012972
0.010992
0.006981
0.002969
0.000990
0.000000
-0.003022
-0.006043
-0.005001
0.000000
-0.002032
-0.013024
-0.023026
-0.025006
-0.035008
-0.069026
-0.108045
-0.116016
-0.084029
-0.045010
-0.025006
-0.018025
-0.007033
0.010002
0.015993
0.008960
0.005991
0.016983
0.030997
0.030997
0.023964
0.020994
0.020994
0.016983
0.013961
0.012972
0.010002
0.005001
0.000000
-0.001042
-0.003022
-0.010002
-0.015003
-0.016045
-0.016045
-0.004011
0.022974
0.011982
-0.122007
-0.473023
-1.127025
-1.896001
-2.103027
-1.264035
0.036988
0.691979
0.457968
0.025995
-0.103044
-0.042041
0.000990
0.016983
0.039957
0.057982
0.063973
0.071995
0.081998
0.088978
0.092990
0.102002
0.113984
0.119975
0.120965
0.119975
0.120965
0.120965
0.121955
0.123986
0.117006
0.095959
0.076997
0.074965
0.088978
0.097001
0.087989
0.066994
0.051991
0.056002
0.068974
0.069964
0.051991
0.036988
0.037977
0.039957
0.029955
0.013961
0.005991
0.006981
0.012972
0.020994
0.023964
0.017973
0.013961
0.016983
0.015003
-0.002032
-0.015003
-0.008023
0.005991
0.005001
-0.002032
0.005001
0.020005
0.026985
0.012972
-0.015003
-0.035998
-0.027037
0.005001
0.025995
0.017973
-0.002032
-0.008023
0.005991
0.023964
0.025006
0.005991
-0.012034
-0.010002
0.005991
0.013961
0.007971
0.000000
-0.001042
0.001980
0.001980
-0.004011
-0.012034
-0.012034
-0.001042
0.010002
0.006981
-0.004011
-0.006043
-0.001042
-0.005001
-0.017035
-0.022036
-0.024016
-0.027037
-0.015003
0.011982
0.022974
0.003959
-0.014014
-0.003022
0.013961
-0.003022
-0.038029
-0.038029
-0.005001
0.011982
-0.009012
-0.030007
-0.020005
0.001980
0.008960
0.001980
-0.008023
-0.017035
-0.024016
-0.025006
-0.020994
-0.030997
-0.066004
-0.093042
-0.069026
-0.019015
-0.002032
-0.020005
-0.023026
-0.005001
0.007971
0.010992
0.015003
0.020005
0.020005
0.020005
0.015993
0.010992
0.007971
0.005991
-0.001042
-0.010002
-0.017035
-0.023026
-0.025995
-0.023026
-0.014014
-0.007033
-0.010002
-0.025006
-0.027037
0.005001
0.028965
-0.059024
-0.359039
-0.954017
-1.756021
-2.229045
-1.727994
-0.449997
0.549968
0.624985
0.196972
-0.070016
-0.057044
0.015993
0.046990
0.056002
0.061003
0.066004
0.068974
0.076997
0.090958
0.103982
0.108983
0.107993
0.109973
0.117006
0.127998
0.135968
0.134978
0.129977
0.128987
0.127998
0.122997
0.113984
0.102992
0.092000
0.082987
0.077986
0.074965
0.071006
0.066994
0.059961
0.052981
0.044958
0.036988
0.029955
0.025006
0.020005
0.018963
0.020994
0.022974
0.017973
0.011982
0.012972
0.016983
0.012972
0.005001
0.002969
0.005001
0.003959
0.001980
0.002969
0.003959
0.002969
0.001980
0.000990
-0.004011
-0.007033
-0.005001
-0.003022
-0.005001
-0.005001
-0.002032
-0.005001
-0.012034
-0.013024
-0.010002
-0.013024
-0.017035
-0.012034
-0.003022
-0.004011
-0.009012
-0.010002
-0.009012
-0.010002
-0.011044
-0.013024
-0.017035
-0.016045
-0.011044
-0.010002
-0.016045
-0.018025
-0.014014
-0.015003
-0.020005
-0.020994
-0.028027
-0.056002
-0.088041
-0.089031
-0.060014
-0.037040
-0.030007
-0.020005
-0.003022
0.000990
-0.005001
-0.001042
0.012972
0.018963
0.013961
0.010002
0.010992
0.008960
0.000000
-0.008023
-0.011044
-0.011044
-0.012034
-0.014014
-0.015003
-0.014014
-0.015003
-0.020994
-0.025006
-0.013024
0.010002
0.015993
-0.055012
-0.322000
-0.925001
-1.737007
-2.149027
-1.583014
-0.339035
0.569972
0.598000
0.178999
-0.066994
-0.052043
0.011982
0.038967
0.058972
0.075955
0.080956
0.083977
0.089968
0.095959
0.100960
0.104972
0.107003
0.107003
0.109973
0.109973
0.104972
0.102992
0.109973
0.115964
0.113984
0.107003
0.102002
0.102002
0.099970
0.090958
0.078976
0.071995
0.071006
0.067984
0.057982
0.042978
0.032976
0.033966
0.037977
0.032976
0.025006
0.023964
0.021984
0.013961
0.010992
0.010992
0.000990
-0.013024
-0.009012
0.001980
0.005991
0.007971
0.020005
0.023964
0.008960
-0.008023
-0.008023
0.000990
0.001980
-0.006043
-0.013024
-0.006043
0.010002
0.015993
-0.002032
-0.030007
-0.035998
-0.019015
0.001980
0.010002
0.001980
-0.012034
-0.014014
-0.003022
-0.005001
-0.043031
-0.094032
-0.116016
-0.099033
-0.074027
-0.058034
-0.030997
0.002969
0.012972
-0.004011
-0.010002
0.002969
0.005991
-0.004011
0.000000
0.012972
0.010002
-0.006043
-0.011044
-0.006043
-0.007033
-0.010002
-0.009012
-0.014014
-0.025995
-0.025995
-0.016045
-0.022036
-0.047042
-0.062045
-0.037040
0.000000
-0.035998
-0.242034
-0.722038
-1.490024
-2.156997
-2.007016
-0.879001
0.330960
0.679997
0.292983
-0.083040
-0.140032
-0.073037
-0.039019
-0.015003
0.020005
0.044958
0.051001
0.052981
0.066004
0.083977
0.095959
0.098981
0.097001
0.093980
0.093980
0.098981
0.104972
0.107993
0.112004
0.120965
0.124976
0.117006
0.102992
0.092990
0.086999
0.082987
0.077986
0.069964
0.059961
0.059961
0.062983
0.056002
0.044958
0.044958
0.051991
0.047980
0.032976
0.022974
0.020994
0.020005
0.012972
0.005991
0.002969
0.000000
-0.003022
-0.003022
0.001980
0.005001
0.003959
0.005001
0.010002
0.011982
0.006981
0.001980
0.003959
0.008960
0.010992
0.005991
-0.001042
-0.003022
0.000990
0.000000
-0.011044
-0.020994
-0.016045
-0.007033
-0.022036
-0.064025
-0.101012
-0.101012
-0.074027
-0.055012
-0.049021
-0.035998
-0.010002
0.006981
0.006981
0.001980
0.000000
-0.001042
0.003959
0.013961
0.016983
0.007971
0.000990
0.001980
-0.001042
-0.009012
-0.013024
-0.008023
-0.003022
-0.008023
-0.019015
-0.022036
-0.017035
-0.024016
-0.035998
-0.013024
0.015993
-0.051001
-0.301005
-0.821019
-1.599997
-2.173043
-1.819004
-0.580027
0.496987
0.634987
0.195982
-0.102002
-0.104034
-0.037040
-0.005001
0.018963
0.039957
0.043968
0.043968
0.052981
0.066004
0.069964
0.073975
0.084967
0.093980
0.095959
0.095959
0.100960
0.104972
0.102002
0.097991
0.098981
0.104972
0.107003
0.098981
0.083977
0.069964
0.063973
0.059961
0.051001
0.043968
0.047980
0.054960
0.051001
0.037977
0.026985
0.026985
0.025995
0.015993
0.005001
0.006981
0.016983
0.020994
0.010992
0.000990
0.005001
0.012972
0.010992
0.003959
0.003959
0.010992
0.012972
0.007971
0.003959
0.005001
0.010002
0.008960
0.000000
-0.005001
0.003959
0.015993
0.015993
0.007971
0.000000
-0.009012
-0.030007
-0.066004
-0.102002
-0.109035
-0.078038
-0.038029
-0.016045
-0.005001
0.007971
0.018963
0.016983
0.010002
0.007971
0.010002
0.011982
0.013961
0.017973
0.018963
0.012972
0.003959
-0.003022
-0.006043
-0.007033
-0.015003
-0.030997
-0.043031
-0.038029
-0.024016
-0.020994
-0.033028
-0.040009
-0.027037
-0.008023
-0.022036
-0.141021
-0.504020
-1.219025
-2.001025
-2.136003
-1.245021
0.023964
0.637957
0.406967
-0.016045
-0.148002
-0.081998
-0.027037
-0.004011
0.018963
0.030997
0.028965
0.033966
0.052981
0.072985
0.082987
0.085957
0.088978
0.089968
0.083977
0.077986
0.080956
0.093980
0.104972
0.099970
0.082987
0.073975
0.083977
0.094969
0.081998
0.056002
0.046000
0.061003
0.064963
0.036988
0.006981
0.013961
0.043968
0.049959
0.023964
-0.002032
-0.013024
-0.012034
-0.006043
-0.005001
-0.010002
-0.013024
-0.006043
0.003959
0.005991
-0.003022
-0.022036
-0.039019
-0.034018
-0.009012
0.007971
0.010002
0.005001
-0.001042
-0.008023
-0.017035
-0.033028
-0.048032
-0.048032
-0.028027
-0.002032
0.011982
0.005991
-0.013024
-0.028027
-0.030997
-0.030007
-0.046000
-0.081008
-0.112004
-0.114036
-0.088041
-0.061003
-0.045010
-0.030997
-0.013024
0.001980
0.006981
0.005991
-0.001042
-0.012034
-0.020005
-0.016045
-0.002032
0.005991
-0.006043
-0.029017
-0.034018
-0.019015
-0.007033
-0.010002
-0.013024
-0.014014
-0.020994
-0.030007
-0.030997
-0.030997
-0.033028
-0.024016
-0.007033
-0.020994
-0.122997
-0.443017
-1.126035
-1.962005
-2.227013
-1.433032
-0.125028
0.631966
0.501988
0.059961
-0.145033
-0.116016
-0.053033
-0.020005
0.005991
0.026985
0.037977
0.048969
0.061993
0.068974
0.073975
0.083977
0.095959
0.100960
0.100960
0.100960
0.102992
0.102992
0.103982
0.107003
0.103982
0.095959
0.093980
0.098981
0.097991
0.083977
0.068974
0.068974
0.074965
0.067984
0.047980
0.031986
0.029955
0.032976
0.026985
0.017973
0.015003
0.018963
0.020994
0.016983
0.010002
0.005991
0.005001
0.000000
-0.010002
-0.014014
-0.011044
-0.010002
-0.015003
-0.016045
-0.009012
-0.003022
-0.003022
-0.002032
-0.002032
-0.006043
-0.014014
-0.018025
-0.016045
-0.011044
-0.012034
-0.020994
-0.027037
-0.025006
-0.037040
-0.076007
-0.115026
-0.112994
-0.079028
-0.051001
-0.040009
-0.028027
-0.012034
-0.005001
-0.007033
-0.004011
0.005001
0.003959
-0.004011
-0.001042
0.008960
0.010002
-0.001042
-0.008023
-0.008023
-0.012034
-0.018025
-0.017035
-0.011044
-0.010002
-0.016045
-0.023026
-0.028027
-0.035998
-0.037040
-0.015003
0.008960
-0.015003
-0.152013
-0.536996
-1.269037
-2.012017
-2.030042
-1.056020
0.153993
0.650980
0.384983
-0.003022
-0.127008
-0.080018
-0.025995
0.010002
0.036988
0.048969
0.052981
0.057982
0.066004
0.076997
0.086999
0.090958
0.090958
0.090958
0.097001
0.110963
0.121955
0.120965
0.112994
0.107993
0.107003
0.102992
0.097991
0.092990
0.087989
0.080956
0.074965
0.071006
0.064963
0.052981
0.037977
0.027975
0.025995
0.026985
0.027975
0.027975
0.022974
0.011982
0.001980
0.000990
0.005001
0.007971
0.007971
0.010002
0.006981
-0.005001
-0.017035
-0.019015
-0.013024
-0.009012
-0.009012
-0.016045
-0.025006
-0.027037
-0.014014
-0.005001
-0.009012
-0.012034
0.000990
0.010992
-0.002032
-0.017035
-0.016045
-0.013024
-0.019015
-0.017035
-0.007033
-0.005001
-0.011044
-0.009012
-0.001042
-0.007033
-0.017035
-0.009012
0.006981
0.000990
-0.025995
-0.040999
-0.028027
-0.003022
0.010992
0.005001
-0.003022
-0.004011
0.000000
0.000990
-0.001042
-0.006043
-0.010002
-0.011044
-0.015003
-0.025006
-0.025006
-0.009012
0.002969
-0.006043
-0.018025
-0.015003
-0.005001
-0.005001
-0.011044
-0.019015
-0.023026
-0.020994
-0.013024
-0.011044
-0.018025
-0.024016
-0.023026
-0.018025
-0.011044
-0.003022
-0.010002
-0.032038
-0.046000
-0.038029
-0.025006
-0.025995
-0.038029
-0.039019
-0.029017
-0.046000
-0.096011
-0.121017
-0.081008
-0.028027
-0.022036
-0.046000
-0.044020
-0.015003
0.002969
-0.002032
-0.017035
-0.030007
-0.030007
-0.016045
-0.003022
-0.004011
-0.006043
0.001980
0.005991
-0.013024
-0.045010
-0.057044
-0.043031
-0.027037
-0.027037
-0.035008
-0.033028
-0.027037
-0.030997
-0.027037
0.002969
0.011982
-0.124038
-0.539028
-1.269037
-2.026030
-2.159029
-1.294042
-0.016045
0.661972
0.488965
0.072985
-0.086999
-0.044020
0.001980
0.015003
0.029955
0.046990
0.057982
0.064963
0.075955
0.088978
0.097991
0.100960
0.102992
0.107993
0.110963
0.112994
0.117995
0.124976
0.126956
0.123986
0.118985
0.115964
0.114974
0.112004
0.102992
0.089968
0.081998
0.078976
0.071006
0.054960
0.039957
0.036988
0.040999
0.039957
0.033966
0.025995
0.017973
0.016983
0.020005
0.018963
0.005991
-0.006043
-0.007033
-0.003022
-0.002032
-0.005001
-0.008023
-0.008023
-0.008023
-0.010002
-0.017035
-0.027037
-0.029017
-0.020005
-0.009012
-0.007033
-0.011044
-0.013024
-0.014014
-0.017035
-0.018025
-0.018025
-0.020005
-0.025006
-0.024016
-0.017035
-0.014014
-0.022036
-0.030007
-0.025995
-0.017035
-0.016045
-0.023026
-0.025995
-0.023026
-0.018025
-0.015003
-0.016045
-0.015003
-0.012034
-0.006043
-0.003022
-0.005001
-0.011044
-0.017035
-0.020994
-0.023026
-0.020005
-0.016045
-0.015003
-0.020994
-0.025995
-0.027037
-0.033028
-0.046000
-0.061003
-0.076007
-0.091010
-0.090020
-0.066004
-0.040999
-0.029017
-0.020005
-0.008023
-0.005001
-0.011044
-0.015003
-0.012034
-0.009012
-0.012034
-0.015003
-0.013024
-0.009012
-0.012034
-0.019015
-0.022036
-0.016045
-0.011044
-0.015003
-0.024016
-0.029017
-0.028027
-0.028027
-0.035008
-0.038029
-0.017035
-0.001042
-0.074027
-0.347005
-0.919010
-1.693039
-2.143036
-1.670012
-0.451039
0.524962
0.616962
0.197961
-0.074027
-0.066994
0.000000
0.025006
0.033966
0.042978
0.048969
0.057982
0.069964
0.079966
0.090958
0.102992
0.110963
0.115964
0.120965
0.122997
0.120965
0.121955
0.124976
0.120965
0.107993
0.097991
0.094969
0.092990
0.089968
0.085957
0.080956
0.066004
0.046990
0.033966
0.031986
0.028965
0.017973
0.007971
0.010992
0.027975
0.038967
0.031986
0.016983
0.006981
0.000990
-0.008023
-0.013024
-0.009012
-0.001042
0.006981
0.010992
0.005991
-0.009012
-0.020994
-0.020994
-0.016045
-0.016045
-0.017035
-0.014014
-0.013024
-0.020994
-0.028027
-0.020005
-0.003022
0.000990
-0.009012
-0.015003
-0.008023
-0.009012
-0.024016
-0.030997
-0.019015
-0.023026
-0.075017
-0.135030
-0.130029
-0.066004
-0.013024
-0.009012
-0.014014
0.002969
0.022974
0.015003
-0.012034
-0.025006
-0.015003
0.001980
0.007971
0.001980
-0.011044
-0.024016
-0.025995
-0.013024
-0.008023
-0.034018
-0.071006
-0.071006
-0.023026
0.020005
0.010002
-0.040009
-0.066004
-0.033028
0.005991
-0.022036
-0.154045
-0.495008
-1.208033
-2.056037
-2.246028
-1.330040
-0.002032
0.651970
0.442965
0.023964
-0.127008
-0.083040
-0.038029
-0.020994
-0.001042
0.017973
0.025006
0.029955
0.041989
0.057982
0.073975
0.087989
0.102002
0.110963
0.112994
0.107003
0.097991
0.097001
0.104972
0.112994
0.109973
0.102992
0.097001
0.095959
0.094969
0.085957
0.075955
0.072985
0.073975
0.071006
0.061993
0.051001
0.040999
0.032976
0.027975
0.026985
0.023964
0.015003
0.005001
0.001980
0.005991
0.008960
0.001980
-0.008023
-0.011044
-0.003022
0.005001
0.001980
-0.005001
-0.004011
0.001980
-0.002032
-0.013024
-0.020005
-0.020005
-0.020005
-0.023026
-0.022036
-0.017035
-0.017035
-0.032038
-0.064025
-0.105024
-0.134041
-0.126018
-0.088041
-0.055012
-0.040999
-0.028027
-0.011044
-0.002032
-0.006043
-0.005001
0.001980
0.002969
-0.004011
-0.008023
-0.001042
0.005991
-0.001042
-0.018025
-0.028027
-0.022036
-0.011044
-0.016045
-0.035008
-0.049021
-0.045010
-0.030997
-0.030007
-0.046000
-0.046000
-0.013024
-0.007033
-0.101012
-0.372011
-0.958029
-1.791029
-2.223002
-1.593016
-0.270009
0.600969
0.529963
0.083977
-0.125028
-0.096011
-0.052043
-0.040999
-0.020994
0.007971
0.025006
0.029955
0.032976
0.043968
0.062983
0.074965
0.074965
0.073975
0.080956
0.090958
0.090958
0.085957
0.088978
0.100960
0.107003
0.097001
0.086999
0.086999
0.084967
0.073975
0.066004
0.063973
0.056992
0.044958
0.037977
0.036988
0.032976
0.021984
0.012972
0.010002
0.007971
0.003959
0.003959
0.008960
0.010002
0.003959
-0.005001
-0.007033
-0.003022
0.000000
-0.002032
-0.006043
-0.009012
-0.010002
-0.009012
-0.009012
-0.012034
-0.009012
0.001980
0.007971
0.000990
-0.009012
-0.011044
-0.013024
-0.020005
-0.029017
-0.047042
-0.079028
-0.111015
-0.116016
-0.090020
-0.055012
-0.029017
-0.013024
-0.004011
-0.007033
-0.011044
-0.004011
0.008960
0.011982
0.005001
0.000990
0.005991
0.010002
0.005001
-0.004011
-0.007033
-0.005001
-0.001042
0.000000
-0.002032
-0.009012
-0.015003
-0.017035
-0.013024
-0.013024
-0.023026
-0.019015
0.007971
-0.003022
-0.147012
-0.518034
-1.192040
-1.952003
-2.114019
-1.231007
0.066994
0.675986
0.402956
-0.030007
-0.139042
-0.068036
-0.030997
-0.019015
0.003959
0.018963
0.017973
0.023964
0.039957
0.053971
0.063973
0.078976
0.093980
0.097991
0.087989
0.077986
0.079966
0.087989
0.092990
0.093980
0.097001
0.095959
0.083977
0.063973
0.056002
0.057982
0.053971
0.041989
0.035998
0.041989
0.048969
0.041989
0.018963
-0.003022
-0.008023
0.001980
0.005991
-0.002032
-0.009012
-0.006043
-0.002032
-0.005001
-0.013024
-0.020005
-0.020994
-0.020005
-0.020994
-0.022036
-0.022036
-0.020994
-0.016045
-0.009012
-0.008023
-0.014014
-0.023026
-0.032038
-0.033028
-0.022036
-0.008023
-0.010002
-0.020005
-0.020005
-0.019015
-0.032038
-0.046000
-0.040999
-0.020994
-0.018025
-0.050011
-0.105024
-0.143001
-0.138000
-0.102002
-0.073037
-0.056002
-0.028027
0.001980
0.006981
-0.006043
-0.009012
-0.005001
-0.017035
-0.040009
-0.047042
-0.029017
-0.001042
0.008960
-0.008023
-0.032038
-0.043031
-0.043031
-0.040009
-0.039019
-0.044020
-0.047042
-0.032038
-0.019015
-0.038029
-0.068036
-0.053033
-0.020005
-0.051001
-0.209995
-0.625037
-1.410006
-2.192995
-2.150017
-1.049039
0.211975
0.649991
0.319968
-0.073037
-0.168996
-0.102002
-0.047042
-0.025995
-0.013024
-0.003022
0.007971
0.021984
0.036988
0.049959
0.066994
0.081998
0.084967
0.077986
0.077986
0.087989
0.097001
0.098981
0.097991
0.098981
0.098981
0.095959
0.084967
0.072985
0.067984
0.069964
0.069964
0.062983
0.051991
0.046990
0.046000
0.041989
0.032976
0.020005
0.010992
0.011982
0.018963
0.018963
0.007971
-0.006043
-0.013024
-0.013024
-0.012034
-0.013024
-0.014014
-0.013024
-0.014014
-0.019015
-0.023026
-0.019015
-0.013024
-0.010002
-0.011044
-0.011044
-0.011044
-0.014014
-0.018025
-0.020005
-0.018025
-0.014014
-0.012034
-0.013024
-0.020005
-0.033028
-0.043031
-0.044020
-0.049021
-0.075017
-0.115026
-0.138000
-0.126018
-0.091010
-0.055012
-0.030007
-0.018025
-0.016045
-0.015003
-0.013024
-0.013024
-0.015003
-0.016045
-0.015003
-0.014014
-0.015003
-0.015003
-0.013024
-0.016045
-0.023026
-0.027037
-0.025006
-0.024016
-0.027037
-0.030007
-0.033028
-0.035998
-0.040009
-0.048032
-0.048032
-0.023026
-0.019015
-0.116016
-0.391026
-0.958029
-1.755032
-2.189036
-1.597027
-0.295015
0.589977
0.528974
0.072985
-0.148002
-0.114036
-0.054023
-0.029017
-0.009012
0.007971
0.015993
0.022974
0.030997
0.036988
0.044958
0.058972
0.071995
0.079966
0.081998
0.081998
0.082987
0.083977
0.083977
0.080956
0.078976
0.083977
0.090958
0.087989
0.071006
0.053971
0.046000
0.046000
0.043968
0.035998
0.025006
0.016983
0.012972
0.011982
0.010992
0.008960
0.005991
-0.003022
-0.014014
-0.017035
-0.009012
-0.006043
-0.012034
-0.018025
-0.016045
-0.015003
-0.017035
-0.017035
-0.010002
-0.003022
-0.006043
-0.013024
-0.014014
-0.013024
-0.015003
-0.017035
-0.013024
-0.009012
-0.009012
-0.011044
-0.011044
-0.010002
-0.009012
-0.005001
-0.001042
-0.003022
-0.011044
-0.016045
-0.013024
-0.006043
-0.006043
-0.013024
-0.017035
-0.015003
-0.016045
-0.033028
-0.055012
-0.059024
-0.045010
-0.047042
-0.081008
-0.110025
-0.101012
-0.071006
-0.056002
-0.050011
-0.032038
-0.009012
-0.002032
-0.009012
-0.016045
-0.016045
-0.013024
-0.008023
-0.002032
-0.003022
-0.015003
-0.025995
-0.027037
-0.025006
-0.025995
-0.025995
-0.025006
-0.030997
-0.034018
-0.024016
-0.009012
-0.008023
-0.018025
-0.020994
-0.006043
-0.002032
-0.083040
-0.367010
-0.978033
-1.806033
-2.243006
-1.664022
-0.367010
0.557991
0.550958
0.112994
-0.122007
-0.108045
-0.061003
-0.030997
0.013961
0.048969
0.044958
0.033966
0.046000
0.071995
0.078976
0.068974
0.071995
0.097001
0.122997
0.124976
0.098981
0.074965
0.082987
0.110963
0.119975
0.097991
0.073975
0.071995
0.077986
0.066994
0.043968
0.035998
0.049959
0.064963
0.063973
0.051991
0.031986
0.005991
-0.011044
-0.001042
0.020005
0.015993
-0.011044
-0.023026
-0.003022
0.017973
0.010992
-0.006043
-0.006043
0.005991
0.001980
-0.018025
-0.025995
-0.016045
-0.012034
-0.022036
-0.022036
-0.005001
-0.001042
-0.018025
-0.024016
-0.004011
0.012972
0.002969
-0.016045
-0.025006
-0.020005
-0.011044
-0.009012
-0.015003
-0.022036
-0.020005
-0.009012
-0.002032
-0.001042
-0.006043
-0.013024
-0.020005
-0.023026
-0.023026
-0.023026
-0.025995
-0.045010
-0.076007
-0.092000
-0.076007
-0.049021
-0.034018
-0.022036
-0.005001
0.008960
0.011982
0.008960
0.005991
0.000000
-0.005001
-0.006043
-0.001042
0.005001
0.005001
-0.003022
-0.013024
-0.015003
-0.009012
-0.006043
-0.010002
-0.018025
-0.019015
-0.014014
-0.017035
-0.032038
-0.030997
-0.001042
0.016983
-0.039019
-0.253026
-0.784031
-1.621043
-2.200028
-1.806033
-0.577995
0.460000
0.625975
0.251984
-0.034018
-0.071006
-0.027037
0.001980
0.020005
0.033966
0.046990
0.063973
0.076997
0.081998
0.085957
0.092000
0.092990
0.090958
0.092990
0.098981
0.105961
0.112004
0.119975
0.126956
0.129977
0.124976
0.114974
0.104972
0.097991
0.092990
0.086999
0.080956
0.080956
0.081998
0.078976
0.066004
0.051001
0.044958
0.046000
0.041989
0.030997
0.021984
0.020005
0.020005
0.020994
0.023964
0.027975
0.026985
0.021984
0.017973
0.015003
0.012972
0.012972
0.016983
0.020005
0.013961
0.007971
0.010002
0.016983
0.020994
0.020005
0.016983
0.012972
0.008960
0.006981
0.003959
-0.002032
-0.005001
0.000000
0.005991
0.005001
-0.007033
-0.016045
-0.014014
-0.020994
-0.052043
-0.090020
-0.093042
-0.059024
-0.025995
-0.013024
-0.003022
0.012972
0.022974
0.020994
0.015993
0.018963
0.025006
0.028965
0.026985
0.020994
0.017973
0.020005
0.022974
0.025995
0.022974
0.013961
0.010992
0.015003
0.015993
0.011982
0.007971
0.005001
-0.001042
0.000000
0.018963
0.033966
-0.006043
-0.197024
-0.694011
-1.494035
-2.103027
-1.824006
-0.673017
0.406967
0.639988
0.259955
-0.056002
-0.084029
-0.016045
0.021984
0.044958
0.062983
0.069964
0.075955
0.082987
0.092990
0.108983
0.124976
0.124976
0.113984
0.110963
0.121955
0.127998
0.125966
0.123986
0.122997
0.114974
0.110963
0.118985
0.124976
0.115964
0.107003
0.107993
0.104972
0.086999
0.069964
0.066994
0.067984
0.062983
0.061003
0.067984
0.071995
0.063973
0.049959
0.033966
0.022974
0.023964
0.033966
0.039957
0.032976
0.023964
0.026985
0.033966
0.033966
0.025006
0.020994
0.023964
0.028965
0.029955
0.029955
0.035998
0.044958
0.043968
0.032976
0.027975
0.031986
0.028965
0.021984
0.028965
0.047980
0.049959
0.033966
0.023964
0.025006
0.023964
0.016983
0.015003
0.021984
0.030997
0.034956
0.032976
0.026985
0.015993
-0.004011
-0.023026
-0.032038
-0.035008
-0.034018
-0.017035
0.018963
0.046990
0.040999
0.016983
0.015003
0.033966
0.041989
0.031986
0.026985
0.040999
0.056002
0.051991
0.033966
0.022974
0.032976
0.051991
0.058972
0.044958
0.028965
0.025006
0.031986
0.037977
0.026985
0.010992
0.022974
0.048969
0.021984
-0.122997
-0.520013
-1.301023
-2.120010
-2.138035
-1.056020
0.246983
0.739959
0.434004
0.034956
-0.076997
-0.024016
0.022974
0.047980
0.072985
0.093980
0.107003
0.118985
0.126956
0.128987
0.131957
0.144981
0.158994
0.163995
0.163995
0.169986
0.182958
0.189001
0.179989
0.163995
0.158994
0.165975
0.170976
0.163995
0.153993
0.148992
0.144981
0.135968
0.124976
0.117995
0.109973
0.100960
0.097001
0.099970
0.100960
0.093980
0.087989
0.090958
0.089968
0.075955
0.057982
0.054960
0.066994
0.076997
0.072985
0.062983
0.054960
0.053971
0.061003
0.067984
0.063973
0.052981
0.048969
0.051001
0.047980
0.040999
0.041989
0.048969
0.052981
0.051991
0.051991
0.054960
0.054960
0.051991
0.049959
0.048969
0.044958
0.038967
0.037977
0.044958
0.046990
0.025995
-0.013024
-0.035998
-0.025006
0.002969
0.022974
0.034956
0.048969
0.063973
0.067984
0.061003
0.054960
0.054960
0.059961
0.059961
0.056002
0.052981
0.061003
0.068974
0.062983
0.047980
0.040999
0.044958
0.046000
0.041989
0.036988
0.031986
0.026985
0.022974
0.015003
0.017973
0.052981
0.073975
-0.025006
-0.342004
-0.955997
-1.742008
-2.093025
-1.424019
-0.126018
0.690989
0.579975
0.133989
-0.053033
-0.006043
0.051991
0.081998
0.109973
0.119975
0.112994
0.115964
0.133989
0.148992
0.150972
0.149982
0.153993
0.163006
0.171966
0.177957
0.179989
0.178999
0.178999
0.178999
0.173998
0.169986
0.171966
0.175977
0.173998
0.164985
0.156963
0.151961
0.143001
0.127998
0.118985
0.124976
0.133989
0.127998
0.110963
0.100960
0.100960
0.100960
0.095959
0.092000
0.094969
0.098981
0.097001
0.088978
0.081998
0.082987
0.090958
0.095959
0.093980
0.087989
0.083977
0.084967
0.089968
0.092990
0.088978
0.080956
0.074965
0.075955
0.078976
0.081998
0.082987
0.080956
0.082987
0.088978
0.092990
0.093980
0.093980
0.093980
0.092000
0.092000
0.095959
0.098981
0.094969
0.088978
0.086999
0.087989
0.086999
0.082987
0.077986
0.075955
0.078976
0.081998
0.081998
0.082987
0.088978
0.087989
0.072985
0.064963
0.078976
0.097991
0.102992
0.097001
0.083977
0.073975
0.077986
0.092000
0.093980
0.079966
0.071006
0.078976
0.090958
0.094969
0.092990
0.088978
0.082987
0.080956
0.087989
0.092000
0.087989
0.081998
0.085957
0.093980
0.093980
0.092990
0.100960
0.107003
0.098981
0.084967
0.082987
0.084967
0.071006
0.052981
0.042978
0.035998
0.027975
0.039957
0.071995
0.088978
0.076997
0.071006
0.092990
0.117006
0.112004
0.090958
0.084967
0.095959
0.104972
0.108983
0.119975
0.127998
0.112994
0.086999
0.077986
0.083977
0.083977
0.080956
0.087989
0.090958
0.077986
0.066994
0.076997
0.089968
0.098981
0.102002
0.063973
-0.063035
-0.368000
-1.006008
-1.834998
-2.124021
-1.304044
0.046990
0.774967
0.591957
0.167955
0.017973
0.061993
0.095959
0.102992
0.132999
0.176967
0.199003
0.194002
0.181968
0.176967
0.180978
0.194002
0.214996
0.221977
0.209995
0.200983
0.214996
0.225989
0.210985
0.196972
0.206974
0.214996
0.196972
0.178999
0.184000
0.194002
0.182958
0.168996
0.174987
0.185979
0.167955
0.130967
0.114974
0.131957
0.145970
0.136958
0.120965
0.113984
0.112994
0.112994
0.115964
0.117006
0.112004
0.103982
0.102992
0.108983
0.113984
0.110963
0.103982
0.102992
0.104972
0.102992
0.097001
0.098981
0.105961
0.107003
0.100960
0.098981
0.107003
0.117006
0.121955
0.118985
0.114974
0.110963
0.109973
0.109973
0.109973
0.107003
0.099970
0.095959
0.099970
0.107003
0.107003
0.099970
0.102002
0.107993
0.108983
0.104972
0.104972
0.102992
0.093980
0.086999
0.090958
0.097991
0.097001
0.088978
0.084967
0.092000
0.102002
0.104972
0.100960
0.099970
0.102992
0.105961
0.102992
0.088978
0.068974
0.051991
0.037977
0.030997
0.046000
0.074965
0.087989
0.078976
0.079966
0.104972
0.124976
0.120965
0.109973
0.107003
0.112004
0.117006
0.115964
0.112004
0.107003
0.099970
0.089968
0.084967
0.087989
0.089968
0.088978
0.089968
0.093980
0.092000
0.083977
0.076997
0.075955
0.086999
0.108983
0.090958
-0.088041
-0.574036
-1.352024
-1.992012
-1.824006
-0.740011
0.419001
0.782989
0.446976
0.094969
0.040999
0.113984
0.150972
0.161964
0.174987
0.182958
0.186969
0.194002
0.202962
0.209006
0.210985
0.214996
0.223957
0.231979
0.235991
0.236981
0.240002
0.245003
0.247973
0.246983
0.236981
0.223957
0.214996
0.217966
0.219998
0.211975
0.199003
0.191970
0.192960
0.189991
0.181968
0.175977
0.175977
0.176967
0.171966
0.160974
0.149982
0.141959
0.138990
0.139980
0.144981
0.146960
0.143001
0.136958
0.133989
0.138990
0.149982
0.153993
0.144981
0.131957
0.130967
0.141959
0.155973
0.161964
0.156963
0.145970
0.136958
0.135968
0.134978
0.129977
0.127998
0.131957
0.138990
0.143001
0.140969
0.139980
0.146960
0.158994
0.160974
0.154983
0.148992
0.148002
0.148992
0.149982
0.149982
0.148992
0.149982
0.153993
0.153003
0.145970
0.140969
0.144981
0.148002
0.141959
0.131957
0.130967
0.135968
0.138990
0.136958
0.135968
0.135968
0.133989
0.130967
0.133989
0.144981
0.150972
0.135968
0.102992
0.079966
0.081998
0.093980
0.097001
0.102992
0.123986
0.140969
0.138000
0.130967
0.139980
0.153993
0.154983
0.149982
0.151961
0.163006
0.166965
0.153993
0.138990
0.136958
0.141959
0.140969
0.138990
0.139980
0.138990
0.138990
0.148992
0.158994
0.150972
0.134978
0.128987
0.122997
0.115964
0.135968
0.158994
0.078976
-0.226041
-0.855037
-1.681994
-2.090003
-1.459027
-0.138000
0.751003
0.700002
0.265998
0.062983
0.097001
0.153003
0.182958
0.209006
0.216976
0.212965
0.223957
0.240992
0.242972
0.235001
0.232969
0.242972
0.259955
0.276000
0.281991
0.277979
0.272978
0.264956
0.250994
0.243961
0.252974
0.265998
0.263966
0.247973
0.233959
0.221977
0.211975
0.209995
0.218956
0.223957
0.216976
0.200983
0.185979
0.175977
0.175977
0.182958
0.178999
0.158004
0.139980
0.148002
0.171966
0.178999
0.165975
0.158994
0.163006
0.158004
0.138000
0.123986
0.131957
0.148002
0.154983
0.155973
0.160974
0.164985
0.164985
0.163006
0.160974
0.158004
0.156963
0.159984
0.163006
0.158004
0.151961
0.153993
0.161964
0.161964
0.151961
0.146960
0.156963
0.164985
0.158994
0.146960
0.149982
0.158994
0.154983
0.138990
0.135968
0.149982
0.161964
0.159984
0.149982
0.148992
0.155973
0.160974
0.158004
0.150972
0.148992
0.149982
0.149982
0.145970
0.141959
0.138990
0.131957
0.113984
0.097991
0.098981
0.103982
0.098981
0.099970
0.123986
0.145970
0.138990
0.123986
0.133989
0.159984
0.168996
0.158994
0.151961
0.156963
0.163006
0.161964
0.158004
0.156963
0.153003
0.143001
0.133989
0.130967
0.131957
0.133989
0.140969
0.148992
0.148992
0.138990
0.127998
0.113984
0.112994
0.145970
0.167955
0.071995
-0.235001
-0.824040
-1.611041
-2.057027
-1.526022
-0.248025
0.706983
0.738969
0.318978
0.089968
0.112004
0.165975
0.182958
0.194992
0.206974
0.212965
0.221977
0.231979
0.238960
0.243961
0.245993
0.246983
0.250004
0.257975
0.263966
0.265998
0.265998
0.263966
0.261986
0.261986
0.255005
0.240992
0.232969
0.240002
0.245003
0.235001
0.221977
0.214996
0.211975
0.206974
0.199993
0.190981
0.184990
0.179989
0.170976
0.166965
0.173998
0.179989
0.174987
0.163995
0.161964
0.160974
0.156963
0.154983
0.159984
0.164985
0.159984
0.144981
0.135968
0.148002
0.163995
0.163995
0.150972
0.146960
0.151961
0.153993
0.153003
0.150972
0.148992
0.148992
0.148002
0.141959
0.136958
0.143001
0.153993
0.155973
0.148002
0.141959
0.143001
0.144981
0.145970
0.145970
0.143991
0.140969
0.140969
0.140969
0.138000
0.141959
0.153993
0.159984
0.150972
0.143001
0.139980
0.135968
0.133989
0.138990
0.144981
0.140969
0.130967
0.127998
0.132999
0.130967
0.119975
0.109973
0.109973
0.103982
0.081998
0.057982
0.053971
0.067984
0.087989
0.107993
0.122997
0.124976
0.112994
0.108983
0.122997
0.136958
0.138000
0.132999
0.131957
0.126956
0.117006
0.118985
0.132999
0.138000
0.123986
0.112004
0.115964
0.127998
0.136958
0.134978
0.113984
0.092000
0.092000
0.109973
0.114974
0.095959
0.083977
0.112994
0.155973
0.115964
-0.117995
-0.656034
-1.465018
-2.078021
-1.795041
-0.596020
0.548978
0.794971
0.386962
0.059961
0.046990
0.122997
0.149982
0.160974
0.181968
0.196972
0.196972
0.194002
0.196972
0.202962
0.205984
0.207964
0.219998
0.237970
0.245993
0.241982
0.240992
0.250994
0.256985
0.245993
0.225989
0.209006
0.195982
0.189001
0.194992
0.207964
0.210985
0.202962
0.195982
0.194992
0.185979
0.163995
0.149982
0.150972
0.149982
0.138990
0.135968
0.145970
0.151961
0.138990
0.117995
0.107993
0.112004
0.115964
0.108983
0.099970
0.110963
0.135968
0.143001
0.126956
0.113984
0.114974
0.113984
0.100960
0.090958
0.102992
0.121955
0.128987
0.120965
0.108983
0.107993
0.115964
0.121955
0.117995
0.107993
0.102002
0.098981
0.097001
0.092990
0.088978
0.090958
0.097001
0.098981
0.095959
0.092000
0.088978
0.084967
0.085957
0.097001
0.103982
0.098981
0.093980
0.095959
0.098981
0.100960
0.102992
0.103982
0.098981
0.097001
0.102002
0.104972
0.098981
0.092000
0.092000
0.089968
0.071006
0.044958
0.037977
0.051001
0.058972
0.057982
0.068974
0.083977
0.081998
0.071995
0.079966
0.099970
0.107993
0.102002
0.099970
0.105961
0.107993
0.103982
0.098981
0.093980
0.087989
0.083977
0.082987
0.078976
0.072985
0.073975
0.079966
0.079966
0.071995
0.067984
0.066994
0.058972
0.056992
0.082987
0.095959
0.032976
-0.162016
-0.626027
-1.428031
-2.112039
-1.882040
-0.687030
0.471982
0.748971
0.383993
0.067984
0.029955
0.087989
0.117995
0.135968
0.158004
0.166965
0.163995
0.163995
0.171966
0.177957
0.178999
0.181968
0.189991
0.196972
0.199003
0.195982
0.194002
0.196972
0.200983
0.197961
0.189001
0.181968
0.178999
0.177957
0.170976
0.156963
0.143991
0.135968
0.127998
0.117006
0.114974
0.120965
0.122997
0.117006
0.110963
0.109973
0.109973
0.108983
0.107003
0.100960
0.092990
0.089968
0.092000
0.092990
0.092000
0.092990
0.092990
0.088978
0.084967
0.083977
0.080956
0.079966
0.084967
0.088978
0.084967
0.076997
0.071995
0.071006
0.071995
0.075955
0.076997
0.075955
0.077986
0.084967
0.086999
0.081998
0.074965
0.072985
0.074965
0.078976
0.074965
0.067984
0.069964
0.077986
0.079966
0.075955
0.072985
0.074965
0.078976
0.080956
0.077986
0.069964
0.069964
0.077986
0.082987
0.075955
0.057982
0.037977
0.027975
0.032976
0.048969
0.066004
0.072985
0.067984
0.058972
0.049959
0.041989
0.032976
0.026985
0.023964
0.020005
0.015003
0.005001
-0.005001
0.000000
0.030997
0.064963
0.066994
0.044958
0.039957
0.064963
0.088978
0.080956
0.052981
0.037977
0.043968
0.054960
0.056002
0.052981
0.056002
0.062983
0.067984
0.069964
0.062983
0.049959
0.042978
0.047980
0.052981
0.046990
0.034956
0.022974
0.020994
0.040999
0.062983
0.044958
-0.047042
-0.338045
-1.026013
-1.915016
-2.207009
-1.378019
-0.038029
0.702971
0.553979
0.124976
-0.047042
0.015003
0.085957
0.097001
0.095959
0.110963
0.124976
0.130967
0.140969
0.153993
0.155973
0.146960
0.144981
0.156963
0.170976
0.171966
0.165975
0.170976
0.189001
0.201973
0.199993
0.184990
0.160974
0.136958
0.124976
0.130967
0.140969
0.143001
0.138000
0.133989
0.127998
0.113984
0.093980
0.085957
0.087989
0.083977
0.071995
0.071995
0.081998
0.079966
0.061003
0.048969
0.054960
0.069964
0.077986
0.074965
0.061993
0.049959
0.051001
0.056002
0.053971
0.046990
0.046000
0.046000
0.041989
0.044958
0.058972
0.064963
0.054960
0.046990
0.046000
0.039957
0.030997
0.030997
0.041989
0.047980
0.046000
0.046000
0.052981
0.057982
0.052981
0.046000
0.046990
0.048969
0.043968
0.036988
0.040999
0.048969
0.047980
0.042978
0.044958
0.054960
0.059961
0.056992
0.051991
0.049959
0.047980
0.044958
0.043968
0.040999
0.034956
0.037977
0.046000
0.047980
0.035998
0.026985
0.025995
0.015003
-0.008023
-0.014014
0.003959
0.017973
0.015003
0.015003
0.021984
0.017973
0.012972
0.025995
0.046990
0.052981
0.048969
0.049959
0.056992
0.057982
0.051001
0.044958
0.046000
0.046000
0.039957
0.029955
0.025995
0.025995
0.025006
0.025995
0.027975
0.027975
0.025995
0.025995
0.021984
0.018963
0.039957
0.061003
0.002969
-0.201035
-0.653012
-1.420008
-2.125011
-1.991022
-0.847014
0.369979
0.727977
0.376960
0.028965
-0.032038
0.027975
0.068974
0.088978
0.102002
0.105961
0.103982
0.103982
0.112004
0.129977
0.143991
0.145970
0.140969
0.141959
0.143991
0.143001
0.143001
0.146960
0.149982
0.143991
0.138000
0.139980
0.144981
0.140969
0.128987
0.117995
0.112994
0.112994
0.109973
0.097991
0.084967
0.080956
0.086999
0.087989
0.079966
0.071995
0.066994
0.063973
0.061993
0.057982
0.051991
0.046000
0.046990
0.048969
0.048969
0.052981
0.057982
0.056002
0.047980
0.046990
0.053971
0.053971
0.047980
0.046000
0.048969
0.051001
0.051001
0.049959
0.044958
0.034956
0.032976
0.043968
0.056002
0.057982
0.054960
0.054960
0.053971
0.049959
0.046000
0.046990
0.046990
0.044958
0.042978
0.040999
0.039957
0.043968
0.049959
0.048969
0.039957
0.037977
0.042978
0.043968
0.037977
0.034956
0.041989
0.046990
0.042978
0.033966
0.026985
0.016983
0.000000
-0.011044
0.000000
0.021984
0.028965
0.020005
0.020005
0.036988
0.037977
0.002969
-0.037040
-0.040999
-0.019015
-0.009012
-0.015003
-0.013024
0.000990
0.008960
0.007971
0.013961
0.029955
0.041989
0.044958
0.046990
0.048969
0.042978
0.031986
0.026985
0.022974
0.010002
-0.002032
0.003959
0.018963
0.026985
0.029955
0.035998
0.035998
0.021984
0.008960
0.003959
0.002969
0.001980
0.011982
0.031986
0.039957
-0.019015
-0.268029
-0.866029
-1.717002
-2.212010
-1.706010
-0.429003
0.570962
0.652960
0.224999
-0.043031
-0.032038
0.032976
0.052981
0.066004
0.080956
0.088978
0.098981
0.117995
0.135968
0.140969
0.131957
0.118985
0.112994
0.124976
0.146960
0.159984
0.154983
0.146960
0.145970
0.144981
0.134978
0.125966
0.123986
0.122997
0.113984
0.107003
0.109973
0.112004
0.094969
0.062983
0.046000
0.059961
0.084967
0.092990
0.082987
0.061993
0.034956
0.020994
0.031986
0.046990
0.037977
0.020994
0.025006
0.049959
0.063973
0.057982
0.046990
0.040999
0.027975
0.005001
-0.001042
0.023964
0.047980
0.041989
0.025995
0.034956
0.056992
0.063973
0.054960
0.044958
0.035998
0.028965
0.030997
0.037977
0.038967
0.030997
0.028965
0.036988
0.046000
0.048969
0.041989
0.032976
0.030997
0.037977
0.041989
0.039957
0.035998
0.032976
0.031986
0.033966
0.041989
0.051991
0.054960
0.046990
0.032976
0.022974
0.023964
0.034956
0.043968
0.043968
0.035998
0.026985
0.020005
0.020005
0.020994
0.016983
0.011982
0.016983
0.026985
0.018963
-0.012034
-0.030997
-0.024016
-0.012034
-0.011044
-0.003022
0.013961
0.016983
0.003959
0.001980
0.016983
0.029955
0.027975
0.022974
0.022974
0.030997
0.036988
0.037977
0.030997
0.020005
0.010992
0.011982
0.017973
0.015003
0.005991
0.003959
0.011982
0.015003
0.010992
0.007971
0.000000
-0.009012
0.005001
0.029955
0.007971
-0.116016
-0.461042
-1.175995
-2.008995
-2.178044
-1.259034
0.051001
0.691979
0.496987
0.103982
-0.035998
0.007971
0.054960
0.071006
0.084967
0.095959
0.097991
0.095959
0.099970
0.107993
0.118985
0.135968
0.148002
0.148002
0.139980
0.138990
0.145970
0.148002
0.138000
0.124976
0.125966
0.138000
0.140969
0.129977
0.115964
0.108983
0.107993
0.107993
0.103982
0.092990
0.077986
0.069964
0.071995
0.073975
0.071995
0.071006
0.072985
0.068974
0.058972
0.051001
0.051001
0.052981
0.049959
0.046000
0.044958
0.044958
0.043968
0.041989
0.041989
0.046000
0.044958
0.039957
0.038967
0.042978
0.043968
0.039957
0.041989
0.048969
0.052981
0.048969
0.035998
0.027975
0.030997
0.037977
0.040999
0.038967
0.036988
0.034956
0.035998
0.040999
0.044958
0.043968
0.041989
0.043968
0.043968
0.039957
0.036988
0.037977
0.032976
0.017973
0.002969
0.005001
0.015993
0.018963
0.010992
0.010002
0.015993
0.016983
0.013961
0.020994
0.031986
0.033966
0.028965
0.027975
0.025995
0.015993
0.008960
0.017973
0.032976
0.033966
0.025006
0.015993
0.015993
0.015993
-0.001042
-0.035008
-0.057044
-0.049021
-0.034018
-0.035008
-0.030997
-0.004011
0.020005
0.012972
-0.009012
-0.006043
0.020005
0.040999
0.039957
0.026985
0.015993
0.012972
0.010002
0.005991
0.012972
0.028965
0.036988
0.032976
0.025006
0.012972
-0.004011
-0.011044
-0.003022
0.005991
0.005001
-0.004011
-0.014014
-0.011044
0.026985
0.063973
0.002969
-0.247035
-0.779030
-1.572022
-2.175022
-1.892042
-0.704013
0.431973
0.695001
0.314967
-0.009012
-0.040999
0.030997
0.069964
0.082987
0.088978
0.095959
0.107003
0.110963
0.100960
0.093980
0.109973
0.131957
0.138990
0.134978
0.140969
0.153993
0.156963
0.149982
0.139980
0.122997
0.102992
0.098981
0.120965
0.140969
0.129977
0.099970
0.079966
0.077986
0.083977
0.092990
0.097991
0.088978
0.064963
0.051001
0.057982
0.069964
0.064963
0.049959
0.046000
0.051001
0.046990
0.033966
0.026985
0.032976
0.039957
0.043968
0.046990
0.044958
0.032976
0.022974
0.025995
0.030997
0.027975
0.023964
0.032976
0.046000
0.049959
0.046000
0.039957
0.036988
0.037977
0.040999
0.037977
0.027975
0.022974
0.025006
0.025995
0.025995
0.025995
0.022974
0.018963
0.020005
0.026985
0.028965
0.022974
0.017973
0.021984
0.027975
0.022974
0.011982
0.006981
0.010002
0.010992
0.013961
0.025995
0.032976
0.025995
0.016983
0.018963
0.021984
0.017973
0.012972
0.015993
0.018963
0.016983
0.012972
0.015993
0.016983
0.010992
0.008960
0.025006
0.032976
0.005991
-0.030997
-0.038029
-0.020994
-0.013024
-0.015003
-0.007033
0.005991
0.005001
-0.003022
0.002969
0.016983
0.023964
0.023964
0.022974
0.020005
0.018963
0.021984
0.025995
0.025995
0.025006
0.022974
0.020994
0.018963
0.015003
0.005991
-0.003022
-0.005001
-0.004011
-0.004011
-0.005001
-0.009012
-0.008023
0.013961
0.034956
-0.028027
-0.282043
-0.837012
-1.645007
-2.197996
-1.814003
-0.581017
0.487975
0.659003
0.263966
-0.017035
-0.022036
0.044958
0.071995
0.075955
0.076997
0.078976
0.088978
0.104972
0.115964
0.118985
0.121955
0.128987
0.138000
0.143991
0.148002
0.150972
0.150972
0.144981
0.139980
0.139980
0.138990
0.131957
0.124976
0.123986
0.124976
0.120965
0.112994
0.105961
0.099970
0.092990
0.087989
0.085957
0.080956
0.072985
0.068974
0.066994
0.058972
0.048969
0.046000
0.044958
0.040999
0.035998
0.036988
0.038967
0.030997
0.015003
0.002969
0.005991
0.018963
0.029955
0.027975
0.020994
0.016983
0.020994
0.025995
0.030997
0.036988
0.040999
0.040999
0.031986
0.017973
0.010002
0.017973
0.034956
0.039957
0.025995
0.007971
0.003959
0.017973
0.032976
0.026985
0.005001
-0.008023
0.000990
0.015003
0.017973
0.011982
0.007971
0.008960
0.006981
-0.003022
-0.008023
0.001980
0.015993
0.016983
0.008960
0.006981
0.013961
0.022974
0.020994
0.003959
-0.011044
-0.008023
0.005001
0.011982
0.013961
0.017973
0.013961
-0.003022
-0.020994
-0.017035
0.006981
0.023964
0.010002
-0.022036
-0.043031
-0.040999
-0.034018
-0.038029
-0.042041
-0.032038
-0.013024
0.002969
0.008960
0.005991
0.005991
0.013961
0.010992
-0.009012
-0.019015
-0.004011
0.003959
-0.006043
0.000990
0.030997
0.037977
0.008960
-0.014014
-0.012034
-0.008023
-0.019015
-0.033028
-0.035998
-0.025006
-0.011044
-0.010002
-0.007033
0.020994
0.023964
-0.088041
-0.398996
-1.023043
-1.862035
-2.269002
-1.594006
-0.236043
0.644000
0.572994
0.139980
-0.055012
-0.025006
0.018963
0.037977
0.063973
0.088978
0.098981
0.102002
0.104972
0.110963
0.119975
0.128987
0.133989
0.136958
0.139980
0.143991
0.148002
0.149982
0.148002
0.143001
0.135968
0.127998
0.123986
0.122997
0.119975
0.112004
0.105961
0.102002
0.095959
0.089968
0.086999
0.081998
0.073975
0.068974
0.063973
0.056002
0.044958
0.041989
0.046000
0.048969
0.044958
0.033966
0.021984
0.015003
0.010992
0.010992
0.016983
0.022974
0.021984
0.015003
0.005991
0.002969
0.005001
0.006981
0.002969
0.000000
0.006981
0.016983
0.015993
0.008960
0.005001
0.006981
0.007971
0.003959
-0.001042
-0.002032
0.002969
0.010992
0.016983
0.015993
0.006981
0.002969
0.006981
0.008960
0.001980
-0.007033
-0.009012
-0.004011
0.000990
0.001980
0.001980
0.002969
0.001980
-0.002032
-0.006043
-0.005001
0.001980
0.007971
0.005001
-0.002032
-0.006043
-0.009012
-0.012034
-0.012034
-0.005001
0.002969
0.005001
-0.002032
-0.009012
-0.007033
0.000990
-0.002032
-0.027037
-0.057044
-0.064025
-0.050011
-0.038029
-0.030997
-0.020005
-0.011044
-0.018025
-0.027037
-0.016045
0.001980
0.007971
0.006981
0.010002
0.011982
0.007971
0.005001
0.006981
0.012972
0.012972
0.005001
-0.005001
-0.009012
-0.009012
-0.010002
-0.014014
-0.020005
-0.020994
-0.016045
-0.016045
-0.016045
0.000000
0.015993
-0.023026
-0.182020
-0.606022
-1.392033
-2.138035
-2.054005
-0.960008
0.250994
0.659003
0.352996
0.008960
-0.066994
-0.025006
0.000000
0.020005
0.051991
0.073975
0.077986
0.084967
0.095959
0.097991
0.095959
0.104972
0.118985
0.122997
0.123986
0.132999
0.138990
0.126956
0.112994
0.119975
0.133989
0.130967
0.114974
0.105961
0.103982
0.098981
0.088978
0.080956
0.083977
0.092000
0.084967
0.063973
0.046990
0.044958
0.048969
0.049959
0.038967
0.023964
0.020994
0.032976
0.041989
0.032976
0.017973
0.011982
0.013961
0.018963
0.020005
0.020005
0.021984
0.022974
0.021984
0.020994
0.017973
0.006981
-0.005001
-0.003022
0.008960
0.012972
0.006981
0.001980
0.001980
0.001980
0.000000
-0.004011
-0.012034
-0.014014
-0.001042
0.018963
0.022974
0.011982
0.010002
0.027975
0.036988
0.010992
-0.025006
-0.022036
0.012972
0.023964
-0.004011
-0.020005
0.005001
0.030997
0.020994
-0.001042
-0.002032
0.006981
0.002969
-0.012034
-0.018025
-0.005001
0.012972
0.015993
0.010002
0.008960
0.012972
0.013961
0.010992
0.003959
-0.005001
-0.007033
0.002969
0.007971
-0.012034
-0.039019
-0.046000
-0.037040
-0.029017
-0.025006
-0.008023
0.012972
0.017973
0.005001
-0.002032
0.006981
0.018963
0.017973
0.013961
0.017973
0.022974
0.017973
0.010002
0.007971
0.008960
0.010002
0.011982
0.015993
0.015993
0.010992
0.006981
0.001980
-0.005001
-0.006043
-0.003022
-0.005001
-0.003022
0.011982
0.020994
-0.024016
-0.218018
-0.724018
-1.548996
-2.196017
-1.952003
-0.807005
0.327001
0.654002
0.337003
0.013961
-0.049021
0.003959
0.037977
0.053971
0.069964
0.076997
0.080956
0.090958
0.105961
0.115964
0.118985
0.119975
0.123986
0.125966
0.125966
0.126956
0.129977
0.130967
0.130967
0.132999
0.134978
0.129977
0.119975
0.109973
0.104972
0.100960
0.089968
0.076997
0.073975
0.080956
0.080956
0.066994
0.051991
0.046990
0.043968
0.036988
0.030997
0.026985
0.025995
0.027975
0.033966
0.035998
0.031986
0.025995
0.022974
0.020994
0.020994
0.023964
0.025995
0.022974
0.015993
0.011982
0.015003
0.021984
0.025006
0.017973
0.008960
0.006981
0.011982
0.016983
0.017973
0.015993
0.012972
0.013961
0.017973
0.020994
0.020994
0.017973
0.012972
0.007971
0.007971
0.013961
0.020005
0.017973
0.013961
0.013961
0.015003
0.011982
0.006981
0.005991
0.007971
0.010992
0.010002
0.008960
0.010992
0.011982
0.010002
0.011982
0.020994
0.027975
0.020994
0.007971
0.003959
0.008960
0.002969
-0.030007
-0.064025
-0.062045
-0.032038
-0.010002
-0.002032
0.016983
0.041989
0.046990
0.032976
0.020005
0.017973
0.023964
0.031986
0.031986
0.025995
0.022974
0.025006
0.023964
0.015993
0.005001
-0.005001
-0.017035
-0.030997
-0.035008
-0.023026
-0.010002
-0.014014
-0.020005
-0.002032
0.010992
-0.058034
-0.301995
-0.842013
-1.653029
-2.221022
-1.841041
-0.595030
0.485995
0.644989
0.225989
-0.059024
-0.046000
0.029955
0.046000
0.049959
0.067984
0.073975
0.058972
0.061003
0.090958
0.115964
0.110963
0.104972
0.124976
0.149982
0.148002
0.118985
0.099970
0.118985
0.148002
0.143991
0.115964
0.108983
0.124976
0.121955
0.090958
0.073975
0.087989
0.100960
0.088978
0.067984
0.059961
0.061993
0.059961
0.052981
0.040999
0.020005
0.005001
0.015993
0.044958
0.062983
0.057982
0.036988
0.010002
-0.004011
0.005001
0.018963
0.015993
0.008960
0.015993
0.020005
0.010992
0.003959
0.006981
0.005991
-0.001042
0.002969
0.015993
0.016983
0.010002
0.012972
0.016983
0.003959
-0.007033
0.005991
0.025995
0.025006
0.005991
-0.003022
0.010002
0.022974
0.000000
-0.056002
-0.104034
-0.109035
-0.079028
-0.046000
-0.025006
-0.011044
0.006981
0.020994
0.025006
0.023964
0.025995
0.025006
0.016983
0.007971
0.003959
0.007971
0.016983
0.018963
0.005001
-0.007033
0.003959
0.018963
0.015993
0.000990
-0.008023
-0.005001
-0.001042
-0.004011
-0.005001
0.010992
0.026985
-0.012034
-0.222029
-0.768038
-1.621043
-2.243006
-1.929029
-0.732040
0.388994
0.659003
0.296994
-0.033028
-0.085019
-0.025995
0.010002
0.028965
0.046990
0.061003
0.069964
0.076997
0.082987
0.092990
0.109973
0.123986
0.127998
0.123986
0.122997
0.130967
0.141959
0.143991
0.134978
0.124976
0.121955
0.124976
0.126956
0.128987
0.127998
0.117995
0.102002
0.090958
0.086999
0.082987
0.075955
0.067984
0.059961
0.051991
0.049959
0.051001
0.044958
0.033966
0.030997
0.038967
0.043968
0.037977
0.027975
0.025006
0.031986
0.038967
0.036988
0.025995
0.020994
0.023964
0.023964
0.016983
0.013961
0.016983
0.018963
0.020005
0.021984
0.021984
0.015993
0.010992
0.010992
0.012972
0.007971
-0.003022
-0.009012
-0.008023
-0.013024
-0.043031
-0.084029
-0.098043
-0.074027
-0.042041
-0.022036
-0.008023
0.005991
0.015993
0.021984
0.027975
0.025995
0.015993
0.013961
0.027975
0.044958
0.046990
0.033966
0.020994
0.013961
0.012972
0.015993
0.015993
0.008960
-0.003022
-0.008023
0.000000
0.011982
0.016983
0.005991
0.000990
0.025006
0.030997
-0.094032
-0.462031
-1.131037
-1.893032
-2.121000
-1.335041
-0.043031
0.673954
0.496987
0.068974
-0.074027
-0.015003
0.027975
0.043968
0.069964
0.086999
0.081998
0.078976
0.089968
0.108983
0.123986
0.125966
0.123986
0.130967
0.148992
0.158994
0.153993
0.143991
0.138990
0.138000
0.138990
0.138990
0.135968
0.130967
0.127998
0.125966
0.117006
0.099970
0.084967
0.075955
0.068974
0.068974
0.080956
0.089968
0.076997
0.052981
0.042978
0.049959
0.053971
0.047980
0.044958
0.048969
0.051991
0.047980
0.037977
0.025995
0.013961
0.015003
0.030997
0.046000
0.042978
0.025995
0.012972
0.010002
0.016983
0.027975
0.034956
0.029955
0.015993
0.012972
0.025006
0.039957
0.042978
0.031986
0.017973
0.015003
0.025006
0.034956
0.027975
0.015993
0.022974
0.041989
0.047980
0.037977
0.031986
0.030997
0.022974
0.017973
0.030997
0.042978
0.036988
0.026985
0.022974
0.016983
0.010992
0.013961
0.016983
0.012972
0.013961
0.029955
0.043968
0.041989
0.031986
0.022974
0.015993
0.015003
0.020994
0.025006
0.021984
0.020994
0.023964
0.021984
0.015003
0.016983
0.033966
0.049959
0.046990
0.030997
0.018963
0.016983
0.011982
-0.002032
-0.004011
0.012972
0.030997
0.034956
0.029955
0.023964
0.020994
0.015993
0.001980
-0.014014
-0.015003
-0.010002
-0.024016
-0.046000
-0.038029
-0.003022
0.015993
0.001980
-0.011044
-0.001042
0.016983
0.029955
0.035998
0.036988
0.030997
0.027975
0.035998
0.040999
0.033966
0.025006
0.025995
0.031986
0.026985
0.012972
0.006981
0.018963
0.030997
0.026985
0.016983
0.013961
0.005001
-0.003022
0.017973
0.037977
-0.034018
-0.279021
-0.807005
-1.635005
-2.269002
-1.931999
-0.660045
0.473961
0.677966
0.288971
0.001980
-0.020005
0.031986
0.061003
0.079966
0.093980
0.097991
0.098981
0.104972
0.117006
0.130967
0.138000
0.138000
0.138990
0.143001
0.146960
0.148992
0.148992
0.148002
0.148002
0.150972
0.154983
0.155973
0.149982
0.138000
0.121955
0.114974
0.118985
0.118985
0.107993
0.097001
0.094969
0.092990
0.082987
0.071995
0.071006
0.075955
0.073975
0.066994
0.061993
0.058972
0.056992
0.052981
0.047980
0.044958
0.042978
0.037977
0.031986
0.034956
0.041989
0.039957
0.027975
0.023964
0.033966
0.044958
0.047980
0.047980
0.051001
0.052981
0.051991
0.052981
0.054960
0.052981
0.047980
0.046000
0.043968
0.035998
0.029955
0.035998
0.046000
0.046990
0.040999
0.037977
0.037977
0.034956
0.033966
0.040999
0.046000
0.037977
0.026985
0.029955
0.039957
0.036988
0.022974
0.021984
0.035998
0.034956
0.000000
-0.044020
-0.054023
-0.028027
0.002969
0.017973
0.023964
0.034956
0.047980
0.053971
0.051991
0.041989
0.028965
0.028965
0.044958
0.057982
0.053971
0.047980
0.047980
0.044958
0.038967
0.040999
0.047980
0.046000
0.032976
0.025006
0.026985
0.026985
0.021984
0.028965
0.048969
0.044958
-0.028027
-0.292045
-0.921041
-1.786028
-2.200028
-1.557018
-0.250994
0.635977
0.618994
0.201973
-0.014014
0.016983
0.075955
0.090958
0.102992
0.115964
0.114974
0.112004
0.120965
0.134978
0.143991
0.149982
0.155973
0.160974
0.167955
0.176967
0.184990
0.184990
0.175977
0.165975
0.161964
0.161964
0.156963
0.150972
0.149982
0.145970
0.130967
0.115964
0.117006
0.127998
0.121955
0.094969
0.071995
0.074965
0.092990
0.102992
0.094969
0.078976
0.064963
0.056992
0.062983
0.080956
0.092000
0.080956
0.062983
0.059961
0.069964
0.068974
0.053971
0.046990
0.057982
0.072985
0.069964
0.051001
0.039957
0.056002
0.077986
0.078976
0.061003
0.049959
0.046990
0.043968
0.042978
0.043968
0.039957
0.034956
0.047980
0.068974
0.075955
0.064963
0.051001
0.047980
0.051991
0.062983
0.073975
0.071006
0.054960
0.043968
0.051001
0.061003
0.051991
0.036988
0.042978
0.064963
0.068974
0.043968
0.020994
0.028965
0.056002
0.071006
0.062983
0.051001
0.048969
0.048969
0.037977
0.027975
0.038967
0.052981
0.044958
0.029955
0.036988
0.048969
0.033966
0.017973
0.033966
0.054960
0.041989
0.020005
0.029955
0.047980
0.036988
0.013961
0.018963
0.037977
0.034956
0.012972
-0.005001
-0.018025
-0.030007
-0.020005
0.013961
0.035998
0.026985
0.018963
0.029955
0.034956
0.021984
0.018963
0.042978
0.064963
0.064963
0.052981
0.044958
0.039957
0.037977
0.040999
0.036988
0.026985
0.022974
0.030997
0.031986
0.022974
0.021984
0.036988
0.041989
0.023964
0.013961
0.033966
0.027975
-0.121017
-0.552000
-1.305034
-2.051036
-2.092035
-1.120045
0.151961
0.716985
0.465001
0.067984
-0.044020
0.017973
0.066004
0.078976
0.088978
0.097991
0.103982
0.113984
0.126956
0.140969
0.148002
0.150972
0.154983
0.155973
0.153993
0.156963
0.164985
0.168996
0.164985
0.160974
0.163995
0.168996
0.164985
0.151961
0.141959
0.141959
0.138000
0.121955
0.104972
0.102992
0.110963
0.115964
0.107993
0.092990
0.084967
0.085957
0.086999
0.079966
0.074965
0.076997
0.080956
0.078976
0.073975
0.071995
0.069964
0.062983
0.054960
0.054960
0.059961
0.059961
0.058972
0.059961
0.057982
0.052981
0.046990
0.044958
0.046000
0.046990
0.044958
0.037977
0.032976
0.038967
0.052981
0.056002
0.046000
0.037977
0.038967
0.040999
0.037977
0.037977
0.040999
0.044958
0.046000
0.047980
0.049959
0.046990
0.039957
0.040999
0.051001
0.057982
0.051991
0.046000
0.047980
0.053971
0.056992
0.051991
0.046990
0.046990
0.047980
0.037977
0.010002
-0.023026
-0.037040
-0.025995
-0.004011
0.015003
0.029955
0.044958
0.056002
0.057982
0.054960
0.053971
0.056002
0.056002
0.051001
0.044958
0.042978
0.043968
0.044958
0.046000
0.046000
0.046000
0.044958
0.041989
0.036988
0.030997
0.025995
0.015993
0.003959
0.017973
0.061003
0.056992
-0.080018
-0.428013
-1.086026
-1.880998
-2.120010
-1.301023
0.002969
0.696980
0.517982
0.112004
-0.025006
0.027975
0.071995
0.086999
0.104972
0.117006
0.118985
0.122997
0.132999
0.144981
0.148992
0.143991
0.143001
0.154983
0.168996
0.168996
0.158004
0.148002
0.140969
0.131957
0.126956
0.131957
0.139980
0.133989
0.119975
0.119975
0.133989
0.133989
0.110963
0.090958
0.088978
0.087989
0.074965
0.061003
0.056002
0.056992
0.061993
0.061993
0.056992
0.056992
0.066004
0.071006
0.066004
0.056992
0.046990
0.040999
0.044958
0.056002
0.054960
0.037977
0.026985
0.036988
0.049959
0.054960
0.056002
0.051991
0.036988
0.023964
0.031986
0.046990
0.046000
0.029955
0.023964
0.038967
0.056992
0.056992
0.046000
0.043968
0.046000
0.037977
0.031986
0.039957
0.046990
0.038967
0.030997
0.030997
0.028965
0.027975
0.040999
0.057982
0.056992
0.036988
0.022974
0.026985
0.039957
0.046990
0.044958
0.042978
0.041989
0.038967
0.032976
0.030997
0.037977
0.040999
0.030997
0.015993
0.001980
-0.009012
-0.009012
0.005991
0.015003
-0.005001
-0.035008
-0.039019
-0.015003
0.010002
0.015993
0.010992
0.010002
0.016983
0.025995
0.034956
0.043968
0.046000
0.038967
0.031986
0.034956
0.037977
0.030997
0.025006
0.033966
0.048969
0.039957
0.008960
-0.009012
-0.002032
0.005001
-0.001042
-0.008023
-0.012034
0.003959
0.044958
0.059961
-0.029017
-0.293035
-0.875041
-1.747009
-2.293018
-1.775036
-0.446038
0.553979
0.611961
0.207964
-0.024016
-0.019015
0.025995
0.047980
0.072985
0.094969
0.098981
0.093980
0.093980
0.100960
0.113984
0.133989
0.153003
0.158994
0.153993
0.151961
0.156963
0.163995
0.164985
0.159984
0.150972
0.146960
0.145970
0.143001
0.135968
0.125966
0.117006
0.112994
0.109973
0.104972
0.095959
0.088978
0.084967
0.077986
0.071995
0.069964
0.066994
0.057982
0.051001
0.054960
0.062983
0.064963
0.058972
0.056992
0.059961
0.057982
0.044958
0.034956
0.038967
0.044958
0.040999
0.029955
0.025995
0.028965
0.030997
0.036988
0.046990
0.049959
0.040999
0.031986
0.028965
0.023964
0.020005
0.026985
0.038967
0.041989
0.031986
0.022974
0.023964
0.031986
0.034956
0.027975
0.018963
0.020005
0.030997
0.040999
0.040999
0.034956
0.025006
0.012972
0.006981
0.008960
0.000990
-0.034018
-0.069026
-0.066004
-0.030997
-0.005001
0.002969
0.016983
0.041989
0.051991
0.042978
0.038967
0.048969
0.056002
0.051001
0.039957
0.037977
0.042978
0.047980
0.046990
0.041989
0.033966
0.025995
0.025006
0.032976
0.037977
0.034956
0.026985
0.015993
0.007971
0.020005
0.041989
0.002969
-0.201035
-0.686040
-1.459027
-2.112039
-1.937000
-0.809037
0.373991
0.708962
0.343984
0.000990
-0.035008
0.038967
0.071006
0.080956
0.097001
0.107003
0.110963
0.117995
0.127998
0.133989
0.138000
0.146960
0.156963
0.158994
0.158994
0.163995
0.168996
0.165975
0.160974
0.156963
0.153003
0.145970
0.138990
0.131957
0.123986
0.112994
0.098981
0.092000
0.097991
0.104972
0.097991
0.082987
0.073975
0.075955
0.082987
0.085957
0.078976
0.066004
0.056992
0.061003
0.071006
0.073975
0.062983
0.046990
0.042978
0.049959
0.058972
0.066994
0.068974
0.058972
0.044958
0.041989
0.047980
0.048969
0.046000
0.046990
0.051001
0.051991
0.046990
0.038967
0.030997
0.030997
0.035998
0.043968
0.049959
0.044958
0.035998
0.036988
0.046990
0.042978
0.025995
0.022974
0.037977
0.049959
0.046990
0.044958
0.056002
0.063973
0.052981
0.032976
0.023964
0.031986
0.041989
0.044958
0.043968
0.041989
0.037977
0.032976
0.027975
0.026985
0.030997
0.036988
0.041989
0.040999
0.035998
0.033966
0.039957
0.049959
0.051991
0.035998
0.017973
0.017973
0.032976
0.040999
0.027975
0.010002
0.002969
0.010002
0.015993
0.000990
-0.028027
-0.039019
-0.014014
0.015003
0.018963
0.011982
0.017973
0.032976
0.040999
0.041989
0.042978
0.043968
0.040999
0.034956
0.036988
0.046000
0.051991
0.042978
0.028965
0.023964
0.025006
0.021984
0.013961
0.010992
0.015993
0.026985
0.035998
0.031986
0.028965
0.052981
0.071006
0.021984
-0.144043
-0.571014
-1.381041
-2.180023
-2.134024
-1.028045
0.230990
0.688958
0.410978
0.062983
-0.028027
0.018963
0.061003
0.078976
0.092990
0.107003
0.112994
0.109973
0.107003
0.117006
0.138990
0.156963
0.159984
0.153003
0.149982
0.155973
0.163995
0.165975
0.163006
0.159984
0.156963
0.149982
0.140969
0.135968
0.132999
0.127998
0.114974
0.102992
0.099970
0.103982
0.100960
0.086999
0.069964
0.062983
0.066994
0.072985
0.074965
0.068974
0.056002
0.048969
0.052981
0.061003
0.058972
0.047980
0.040999
0.043968
0.046000
0.042978
0.039957
0.038967
0.038967
0.035998
0.035998
0.043968
0.051001
0.047980
0.041989
0.040999
0.041989
0.033966
0.021984
0.015993
0.017973
0.025006
0.033966
0.037977
0.037977
0.039957
0.041989
0.037977
0.029955
0.022974
0.017973
0.018963
0.025006
0.031986
0.033966
0.028965
0.022974
0.022974
0.032976
0.044958
0.047980
0.039957
0.033966
0.034956
0.034956
0.027975
0.022974
0.026985
0.036988
0.044958
0.046990
0.037977
0.025006
0.015003
0.008960
0.005991
0.000000
-0.022036
-0.043031
-0.032038
0.000990
0.011982
0.001980
0.010992
0.038967
0.052981
0.044958
0.034956
0.036988
0.048969
0.057982
0.056992
0.047980
0.041989
0.042978
0.041989
0.036988
0.031986
0.033966
0.037977
0.037977
0.033966
0.032976
0.032976
0.020994
0.006981
0.023964
0.058972
0.033966
-0.125028
-0.524025
-1.269037
-2.057027
-2.100005
-1.068002
0.219998
0.723966
0.434994
0.063973
-0.022036
0.022974
0.043968
0.051991
0.072985
0.089968
0.097001
0.107003
0.114974
0.117006
0.117006
0.126956
0.140969
0.150972
0.159984
0.170976
0.174987
0.163995
0.144981
0.132999
0.134978
0.143001
0.143991
0.131957
0.115964
0.104972
0.102992
0.102002
0.089968
0.068974
0.059961
0.076997
0.095959
0.092990
0.073975
0.061003
0.061993
0.062983
0.058972
0.051991
0.044958
0.040999
0.042978
0.053971
0.061993
0.053971
0.031986
0.017973
0.020005
0.029955
0.042978
0.056002
0.059961
0.046000
0.025006
0.015993
0.016983
0.018963
0.020005
0.030997
0.046990
0.051001
0.042978
0.040999
0.044958
0.037977
0.020005
0.016983
0.038967
0.049959
0.026985
-0.001042
0.007971
0.040999
0.047980
0.017973
-0.002032
0.015993
0.037977
0.026985
0.002969
0.002969
0.016983
0.017973
0.010992
0.023964
0.049959
0.056002
0.030997
0.006981
0.008960
0.027975
0.028965
0.000000
-0.027037
-0.016045
0.013961
0.017973
-0.013024
-0.040009
-0.037040
-0.020005
-0.016045
-0.018025
-0.004011
0.023964
0.038967
0.029955
0.015003
0.013961
0.025006
0.032976
0.032976
0.025995
0.022974
0.028965
0.027975
0.015993
0.007971
0.015993
0.020994
0.011982
-0.001042
-0.002032
0.002969
0.005991
0.005001
0.001980
0.010992
0.030997
0.001980
-0.207026
-0.737041
-1.552017
-2.180023
-1.937000
-0.783041
0.375970
0.693959
0.333982
-0.007033
-0.054023
0.013961
0.046000
0.052981
0.061003
0.071995
0.086999
0.100960
0.108983
0.112004
0.117006
0.124976
0.130967
0.126956
0.121955
0.122997
0.125966
0.129977
0.138990
0.145970
0.141959
0.132999
0.127998
0.123986
0.112004
0.097991
0.089968
0.084967
0.078976
0.069964
0.062983
0.062983
0.061993
0.056992
0.056002
0.059961
0.062983
0.056002
0.046000
0.042978
0.040999
0.033966
0.025006
0.018963
0.015993
0.015993
0.017973
0.018963
0.022974
0.029955
0.032976
0.025995
0.017973
0.016983
0.015993
0.010002
0.010002
0.015993
0.017973
0.010992
0.005001
0.005991
0.012972
0.018963
0.015993
0.005991
-0.002032
-0.002032
0.002969
0.006981
0.007971
0.005991
0.001980
0.000000
0.000990
0.005991
0.010992
0.012972
0.010002
0.005991
0.003959
0.003959
0.003959
0.006981
0.013961
0.016983
0.010002
0.001980
0.005001
0.012972
0.015993
0.012972
0.006981
0.000000
-0.010002
-0.017035
-0.018025
-0.023026
-0.039019
-0.049021
-0.035998
-0.013024
-0.002032
0.001980
0.011982
0.026985
0.035998
0.035998
0.030997
0.026985
0.030997
0.037977
0.033966
0.022974
0.018963
0.017973
0.012972
0.010992
0.016983
0.020994
0.012972
0.005001
0.007971
0.015993
0.015003
0.005001
0.002969
0.018963
0.023964
-0.063035
-0.362999
-0.989025
-1.796031
-2.182003
-1.581034
-0.326011
0.549968
0.544967
0.143001
-0.065015
-0.033028
0.030997
0.059961
0.075955
0.081998
0.073975
0.066994
0.069964
0.082987
0.098981
0.109973
0.112994
0.115964
0.124976
0.135968
0.138990
0.131957
0.121955
0.121955
0.128987
0.128987
0.113984
0.092990
0.085957
0.094969
0.097991
0.087989
0.077986
0.078976
0.077986
0.066004
0.048969
0.038967
0.041989
0.048969
0.042978
0.021984
0.005001
0.008960
0.026985
0.042978
0.052981
0.053971
0.041989
0.020005
0.003959
-0.003022
-0.005001
-0.006043
-0.002032
0.005991
0.008960
0.005001
0.003959
0.010002
0.015993
0.015993
0.012972
0.010992
0.007971
-0.001042
-0.007033
-0.001042
0.012972
0.020005
0.017973
0.015993
0.015993
0.010992
0.003959
0.000990
-0.001042
-0.006043
-0.007033
-0.002032
0.000000
-0.004011
-0.001042
0.008960
0.008960
-0.005001
-0.014014
-0.005001
0.012972
0.021984
0.008960
-0.013024
-0.020005
-0.008023
-0.002032
-0.013024
-0.015003
0.002969
0.011982
-0.002032
-0.013024
-0.005001
-0.008023
-0.039019
-0.071006
-0.071995
-0.049021
-0.028027
-0.022036
-0.020994
-0.012034
-0.001042
0.003959
0.008960
0.021984
0.034956
0.032976
0.017973
0.008960
0.010992
0.011982
0.006981
0.000990
-0.001042
-0.002032
-0.006043
-0.009012
-0.012034
-0.016045
-0.016045
-0.011044
-0.011044
-0.015003
0.005001
0.035998
-0.013024
-0.240002
-0.736000
-1.507997
-2.161999
-1.987011
-0.850036
0.344974
0.692969
0.339973
-0.004011
-0.056002
0.005001
0.035998
0.049959
0.066004
0.077986
0.083977
0.086999
0.089968
0.094969
0.102992
0.110963
0.120965
0.129977
0.133989
0.130967
0.125966
0.124976
0.125966
0.127998
0.129977
0.129977
0.121955
0.109973
0.100960
0.099970
0.098981
0.093980
0.085957
0.081998
0.080956
0.077986
0.069964
0.061003
0.056002
0.051991
0.046990
0.038967
0.034956
0.034956
0.030997
0.025995
0.028965
0.036988
0.034956
0.026985
0.025006
0.031986
0.032976
0.025006
0.018963
0.016983
0.015993
0.018963
0.025006
0.027975
0.021984
0.015993
0.015993
0.015993
0.013961
0.017973
0.022974
0.018963
0.010992
0.008960
0.015993
0.021984
0.022974
0.022974
0.023964
0.020005
0.012972
0.013961
0.020005
0.020005
0.013961
0.010992
0.013961
0.010992
0.000000
-0.008023
-0.006043
-0.012034
-0.039019
-0.071995
-0.074027
-0.040009
-0.004011
0.006981
0.007971
0.017973
0.032976
0.037977
0.034956
0.028965
0.022974
0.020005
0.016983
0.016983
0.023964
0.032976
0.029955
0.013961
0.003959
0.010002
0.020005
0.015993
0.002969
-0.003022
0.001980
0.002969
-0.003022
0.000000
0.013961
-0.019015
-0.206036
-0.667026
-1.413027
-2.073020
-1.969038
-0.913019
0.286992
0.695990
0.358987
-0.014014
-0.079028
-0.005001
0.038967
0.054960
0.062983
0.062983
0.066994
0.075955
0.080956
0.084967
0.090958
0.093980
0.092000
0.097001
0.118985
0.139980
0.138000
0.126956
0.128987
0.138000
0.128987
0.104972
0.089968
0.095959
0.109973
0.108983
0.092000
0.073975
0.071006
0.069964
0.058972
0.046000
0.043968
0.046990
0.051001
0.051991
0.043968
0.029955
0.022974
0.032976
0.042978
0.037977
0.021984
0.012972
0.018963
0.025995
0.020005
0.008960
0.010002
0.021984
0.021984
0.010992
0.012972
0.033966
0.044958
0.029955
0.007971
0.005001
0.013961
0.015003
0.001980
-0.008023
-0.003022
0.006981
0.000000
-0.034018
-0.081998
-0.114036
-0.109035
-0.071995
-0.035998
-0.018025
-0.005001
0.011982
0.020994
0.010002
-0.007033
-0.007033
0.010992
0.025995
0.022974
0.011982
0.006981
0.008960
0.006981
-0.001042
-0.004011
-0.002032
-0.002032
-0.004011
-0.005001
-0.006043
-0.009012
-0.014014
-0.023026
-0.023026
0.005991
0.020005
-0.088041
-0.418011
-1.046017
-1.861045
-2.271034
-1.635994
-0.286002
0.630976
0.565961
0.092000
-0.129040
-0.085019
-0.023026
-0.003022
0.016983
0.042978
0.061003
0.068974
0.067984
0.071006
0.088978
0.108983
0.114974
0.112004
0.113984
0.121955
0.124976
0.117995
0.112004
0.112994
0.112994
0.107003
0.099970
0.098981
0.099970
0.098981
0.092000
0.081998
0.071995
0.064963
0.061993
0.058972
0.051991
0.046990
0.046000
0.044958
0.037977
0.027975
0.022974
0.022974
0.022974
0.020994
0.016983
0.012972
0.011982
0.012972
0.015003
0.015993
0.017973
0.020994
0.020005
0.015993
0.010002
0.007971
0.007971
0.010992
0.016983
0.020005
0.017973
0.008960
-0.001042
-0.009012
-0.022036
-0.051001
-0.094032
-0.124038
-0.115026
-0.076997
-0.043031
-0.022036
-0.002032
0.016983
0.025006
0.023964
0.023964
0.023964
0.018963
0.010992
0.007971
0.007971
0.006981
0.005001
0.005001
0.008960
0.013961
0.015003
0.010002
0.005001
0.002969
0.000000
-0.004011
-0.011044
-0.015003
-0.003022
0.015993
0.006981
-0.085019
-0.402018
-1.098998
-1.938042
-2.171011
-1.342022
-0.058034
0.632955
0.475003
0.061993
-0.105024
-0.064025
-0.011044
0.010992
0.032976
0.052981
0.064963
0.074965
0.079966
0.078976
0.084967
0.100960
0.112994
0.113984
0.113984
0.117006
0.117006
0.113984
0.110963
0.109973
0.112004
0.113984
0.112994
0.107993
0.099970
0.087989
0.076997
0.072985
0.073975
0.072985
0.069964
0.067984
0.061003
0.049959
0.046000
0.049959
0.046000
0.032976
0.023964
0.030997
0.040999
0.037977
0.027975
0.026985
0.034956
0.037977
0.026985
0.017973
0.018963
0.022974
0.021984
0.022974
0.031986
0.037977
0.029955
0.012972
-0.002032
-0.002032
0.015993
0.033966
0.029955
0.012972
0.003959
0.002969
-0.003022
-0.014014
-0.028027
-0.052043
-0.081998
-0.091010
-0.066994
-0.033028
-0.009012
0.000000
0.002969
0.005001
0.010002
0.013961
0.010992
0.002969
0.005001
0.020994
0.042978
0.053971
0.043968
0.020005
0.000000
-0.001042
0.010002
0.015003
0.005991
-0.005001
-0.011044
-0.010002
-0.010002
-0.011044
-0.004011
0.015993
0.027975
-0.001042
-0.117006
-0.467033
-1.206001
-2.047025
-2.204039
-1.284040
0.010992
0.636967
0.429003
0.023964
-0.121017
-0.078038
-0.030007
-0.001042
0.028965
0.047980
0.059961
0.080956
0.097001
0.088978
0.075955
0.084967
0.104972
0.105961
0.098981
0.107993
0.125966
0.127998
0.112004
0.100960
0.100960
0.108983
0.115964
0.108983
0.085957
0.071006
0.081998
0.095959
0.079966
0.048969
0.039957
0.051991
0.051991
0.034956
0.030997
0.046990
0.056992
0.044958
0.026985
0.015993
0.010002
0.010992
0.022974
0.037977
0.043968
0.037977
0.026985
0.018963
0.015003
0.010002
0.003959
0.008960
0.025006
0.031986
0.023964
0.015993
0.015003
0.012972
0.005991
0.001980
0.000990
-0.003022
-0.005001
0.001980
0.008960
0.005001
-0.003022
-0.013024
-0.034018
-0.071006
-0.097001
-0.089031
-0.060014
-0.039019
-0.020005
0.005001
0.025006
0.025006
0.020005
0.020994
0.018963
0.010992
0.005991
0.006981
0.010002
0.008960
0.006981
0.008960
0.013961
0.011982
0.005001
0.002969
0.005001
0.000990
-0.003022
0.000000
-0.004011
-0.016045
-0.010002
0.017973
0.016983
-0.068036
-0.346016
-0.994027
-1.869016
-2.248008
-1.538004
-0.212027
0.621963
0.549968
0.123986
-0.086999
-0.063035
-0.004011
0.025006
0.044958
0.059961
0.066994
0.076997
0.085957
0.088978
0.092000
0.098981
0.102992
0.105961
0.112994
0.121955
0.125966
0.126956
0.130967
0.133989
0.127998
0.113984
0.100960
0.092990
0.093980
0.097991
0.095959
0.085957
0.071006
0.056992
0.052981
0.056992
0.056002
0.047980
0.041989
0.036988
0.029955
0.028965
0.034956
0.036988
0.030997
0.028965
0.025995
0.017973
0.013961
0.020994
0.025995
0.020005
0.012972
0.011982
0.010992
0.008960
0.007971
0.012972
0.021984
0.023964
0.017973
0.010992
0.011982
0.020994
0.023964
0.018963
0.012972
0.013961
0.017973
0.020994
0.021984
0.020005
0.015003
0.011982
0.006981
-0.009012
-0.044020
-0.078038
-0.081998
-0.055012
-0.024016
-0.005001
0.008960
0.018963
0.022974
0.027975
0.038967
0.043968
0.034956
0.023964
0.025006
0.033966
0.039957
0.036988
0.026985
0.017973
0.020005
0.025995
0.023964
0.015993
0.006981
0.000990
-0.005001
-0.009012
-0.009012
-0.008023
-0.002032
0.008960
0.005991
-0.064025
-0.334034
-0.963030
-1.804001
-2.200028
-1.569000
-0.288034
0.583986
0.550958
0.112994
-0.110025
-0.071006
-0.003022
0.012972
0.026985
0.053971
0.074965
0.079966
0.075955
0.079966
0.100960
0.119975
0.113984
0.097991
0.100960
0.123986
0.139980
0.138000
0.123986
0.105961
0.092990
0.089968
0.092990
0.097001
0.097001
0.093980
0.089968
0.087989
0.084967
0.077986
0.066994
0.053971
0.041989
0.029955
0.018963
0.012972
0.023964
0.044958
0.048969
0.026985
0.015003
0.033966
0.048969
0.026985
-0.002032
-0.001042
0.015003
0.012972
0.000990
0.001980
0.012972
0.012972
0.005001
0.006981
0.017973
0.021984
0.012972
0.008960
0.015993
0.020005
0.005001
-0.011044
-0.007033
0.005001
0.008960
0.008960
0.018963
0.029955
0.027975
0.011982
-0.004011
-0.013024
-0.019015
-0.022036
-0.012034
0.013961
0.027975
0.015993
-0.002032
-0.002032
0.002969
-0.005001
-0.015003
-0.010002
0.002969
0.008960
0.007971
0.005001
0.000000
-0.004011
-0.004011
-0.003022
-0.003022
0.000990
0.010992
0.013961
0.006981
-0.002032
-0.005001
-0.005001
-0.009012
-0.013024
-0.010002
-0.002032
0.000990
-0.002032
-0.001042
0.001980
-0.002032
-0.010002
-0.009012
0.000990
0.007971
0.007971
0.006981
0.007971
0.005001
-0.002032
-0.008023
-0.011044
-0.019015
-0.033028
-0.042041
-0.046000
-0.056002
-0.066004
-0.056002
-0.030997
-0.013024
-0.010002
-0.012034
-0.005001
0.005001
0.010002
0.005001
-0.001042
-0.002032
0.000000
-0.001042
-0.002032
0.000990
0.000990
-0.005001
-0.012034
-0.012034
-0.009012
-0.006043
-0.009012
-0.018025
-0.025006
-0.023026
-0.019015
-0.024016
-0.024016
-0.004011
0.003959
-0.083040
-0.400038
-1.061021
-1.865004
-2.161999
-1.464028
-0.216038
0.577005
0.528974
0.141959
-0.046000
-0.015003
0.038967
0.053971
0.061003
0.067984
0.066994
0.063973
0.069964
0.083977
0.092000
0.093980
0.102992
0.113984
0.114974
0.107993
0.109973
0.120965
0.123986
0.115964
0.107993
0.103982
0.102992
0.102992
0.102002
0.092990
0.080956
0.078976
0.080956
0.071995
0.056002
0.042978
0.035998
0.030997
0.026985
0.020994
0.015003
0.011982
0.013961
0.015003
0.010992
0.007971
0.010002
0.013961
0.012972
0.006981
0.005001
0.006981
0.007971
0.001980
-0.003022
-0.002032
0.000990
-0.001042
-0.005001
-0.005001
0.002969
0.010002
0.005001
-0.006043
-0.010002
-0.003022
0.005001
0.005991
0.005991
0.007971
0.006981
0.000990
-0.001042
0.005001
0.007971
0.005991
0.005001
0.007971
0.010992
0.010002
0.010002
0.006981
0.000000
-0.002032
0.005001
0.010002
0.003959
-0.006043
-0.009012
-0.006043
-0.012034
-0.027037
-0.035998
-0.023026
0.001980
0.013961
0.002969
-0.009012
-0.003022
0.015993
0.021984
0.008960
-0.002032
-0.001042
-0.005001
-0.033028
-0.063035
-0.066004
-0.050011
-0.042041
-0.037040
-0.015003
0.005001
-0.009012
-0.037040
-0.029017
0.008960
0.028965
0.015993
-0.001042
0.000000
0.008960
0.012972
0.006981
-0.007033
-0.020005
-0.022036
-0.013024
-0.006043
-0.011044
-0.019015
-0.018025
-0.014014
-0.020005
-0.032038
-0.038029
-0.039019
-0.037040
-0.020005
-0.005001
-0.069026
-0.345026
-0.955997
-1.781027
-2.228003
-1.683036
-0.413010
0.529963
0.567003
0.151961
-0.084029
-0.066994
-0.009012
0.015003
0.032976
0.052981
0.058972
0.047980
0.033966
0.036988
0.056992
0.080956
0.094969
0.098981
0.102992
0.108983
0.107993
0.100960
0.098981
0.097991
0.090958
0.087989
0.097001
0.095959
0.073975
0.058972
0.061993
0.066004
0.057982
0.051991
0.053971
0.052981
0.040999
0.022974
0.012972
0.017973
0.026985
0.022974
0.010992
0.006981
0.013961
0.016983
0.010992
0.001980
-0.001042
-0.003022
-0.006043
-0.010002
-0.011044
-0.007033
0.001980
0.005001
-0.002032
-0.010002
-0.011044
-0.006043
-0.005001
-0.007033
-0.005001
0.000990
0.002969
-0.002032
-0.009012
-0.006043
-0.002032
-0.009012
-0.020005
-0.020994
-0.012034
-0.006043
-0.012034
-0.022036
-0.025006
-0.020005
-0.016045
-0.016045
-0.019015
-0.017035
-0.011044
-0.007033
-0.009012
-0.013024
-0.016045
-0.016045
-0.014014
-0.015003
-0.019015
-0.019015
-0.013024
-0.013024
-0.019015
-0.024016
-0.023026
-0.020994
-0.025995
-0.040999
-0.065015
-0.080018
-0.076007
-0.065015
-0.062045
-0.059024
-0.050011
-0.046000
-0.050011
-0.049021
-0.033028
-0.020005
-0.020005
-0.023026
-0.020005
-0.016045
-0.014014
-0.012034
-0.013024
-0.019015
-0.023026
-0.022036
-0.020994
-0.025006
-0.030007
-0.029017
-0.027037
-0.030997
-0.040999
-0.048032
-0.049021
-0.044020
-0.028027
0.002969
0.006981
-0.117006
-0.489017
-1.168024
-1.926008
-2.144026
-1.386042
-0.132009
0.604980
0.486985
0.076997
-0.090020
-0.039019
0.016983
0.030997
0.037977
0.046000
0.054960
0.059961
0.056992
0.051991
0.062983
0.088978
0.107003
0.108983
0.104972
0.105961
0.107003
0.102992
0.095959
0.095959
0.099970
0.098981
0.085957
0.071006
0.066994
0.071006
0.068974
0.058972
0.054960
0.056002
0.047980
0.033966
0.028965
0.030997
0.026985
0.015993
0.008960
0.007971
0.010002
0.010992
0.011982
0.010002
0.002969
-0.007033
-0.009012
-0.004011
-0.001042
-0.003022
-0.006043
-0.009012
-0.013024
-0.014014
-0.011044
-0.008023
-0.009012
-0.010002
-0.009012
-0.009012
-0.014014
-0.024016
-0.030007
-0.020994
-0.003022
0.005991
0.000000
-0.012034
-0.019015
-0.020005
-0.019015
-0.016045
-0.011044
-0.004011
0.000990
0.000990
-0.002032
-0.005001
-0.010002
-0.019015
-0.027037
-0.020994
-0.004011
0.002969
-0.007033
-0.019015
-0.015003
-0.006043
-0.012034
-0.027037
-0.028027
-0.011044
0.000990
-0.001042
-0.002032
-0.002032
-0.016045
-0.032038
-0.034018
-0.038029
-0.060014
-0.076007
-0.066004
-0.053033
-0.060014
-0.065015
-0.049021
-0.030997
-0.035008
-0.045010
-0.033028
-0.005001
0.012972
0.012972
0.002969
-0.006043
-0.013024
-0.019015
-0.016045
-0.006043
-0.002032
-0.013024
-0.030997
-0.045010
-0.046000
-0.034018
-0.018025
-0.016045
-0.025995
-0.033028
-0.034018
-0.040999
-0.048032
-0.039019
-0.024016
-0.042041
-0.157015
-0.513033
-1.233039
-2.031032
-2.177002
-1.295032
-0.035008
0.603001
0.434004
0.051001
-0.098043
-0.062045
-0.006043
0.025995
0.032976
0.017973
0.012972
0.041989
0.082987
0.099970
0.093980
0.087989
0.093980
0.102992
0.102992
0.098981
0.098981
0.104972
0.107003
0.099970
0.093980
0.092000
0.088978
0.077986
0.071995
0.074965
0.074965
0.068974
0.066994
0.068974
0.064963
0.052981
0.042978
0.039957
0.033966
0.023964
0.013961
0.005991
0.003959
0.010002
0.015003
0.010002
-0.001042
-0.007033
-0.009012
-0.013024
-0.013024
-0.006043
-0.002032
-0.005001
-0.005001
-0.001042
-0.001042
-0.009012
-0.013024
-0.013024
-0.015003
-0.016045
-0.011044
-0.008023
-0.014014
-0.016045
-0.003022
0.010992
0.007971
-0.007033
-0.019015
-0.019015
-0.012034
-0.007033
-0.007033
-0.007033
-0.004011
-0.004011
-0.010002
-0.017035
-0.020005
-0.022036
-0.025995
-0.025006
-0.018025
-0.013024
-0.016045
-0.019015
-0.016045
-0.015003
-0.020994
-0.025995
-0.020994
-0.013024
-0.013024
-0.023026
-0.030997
-0.027037
-0.018025
-0.022036
-0.050011
-0.081008
-0.081008
-0.059024
-0.051001
-0.058034
-0.050011
-0.027037
-0.023026
-0.035008
-0.035998
-0.017035
-0.001042
0.000000
-0.011044
-0.018025
-0.014014
-0.004011
-0.003022
-0.011044
-0.016045
-0.017035
-0.018025
-0.020005
-0.023026
-0.027037
-0.027037
-0.024016
-0.029017
-0.035998
-0.030997
-0.023026
-0.020994
-0.005001
0.008960
-0.043031
-0.224999
-0.654002
-1.429021
-2.165020
-2.049994
-0.907028
0.308976
0.659993
0.314967
-0.017035
-0.069026
-0.012034
0.023964
0.035998
0.032976
0.023964
0.025995
0.034956
0.035998
0.033966
0.049959
0.081998
0.107003
0.107993
0.095959
0.092000
0.100960
0.107993
0.104972
0.097001
0.092000
0.093980
0.100960
0.103982
0.088978
0.056002
0.030997
0.034956
0.053971
0.057982
0.038967
0.015993
0.008960
0.015993
0.022974
0.015993
0.005001
0.005001
0.010002
0.001980
-0.010002
-0.006043
0.005001
0.000000
-0.017035
-0.020005
-0.002032
0.015993
0.013961
0.001980
-0.008023
-0.016045
-0.025995
-0.027037
-0.012034
0.007971
0.015993
0.006981
-0.010002
-0.020994
-0.020005
-0.011044
-0.004011
-0.003022
-0.003022
-0.001042
-0.003022
-0.012034
-0.017035
-0.013024
-0.010002
-0.014014
-0.023026
-0.027037
-0.020005
-0.002032
0.011982
0.010992
-0.003022
-0.019015
-0.022036
-0.007033
0.008960
0.010002
0.002969
0.002969
0.006981
0.008960
0.011982
0.012972
0.007971
0.000990
0.002969
0.010002
0.012972
0.010992
-0.001042
-0.023026
-0.044020
-0.047042
-0.042041
-0.044020
-0.044020
-0.025995
-0.005001
-0.006043
-0.020005
-0.016045
0.000990
0.007971
0.000990
-0.003022
0.001980
0.006981
0.010992
0.015003
0.015003
0.010002
0.001980
-0.004011
-0.010002
-0.011044
-0.006043
0.000000
0.000990
-0.003022
-0.004011
-0.009012
-0.027037
-0.035008
-0.013024
0.003959
-0.053033
-0.267039
-0.788043
-1.614010
-2.207009
-1.844010
-0.630038
0.421970
0.603991
0.236981
-0.034018
-0.044020
0.016983
0.039957
0.046000
0.051991
0.058972
0.066004
0.073975
0.081998
0.092000
0.097991
0.098981
0.102002
0.104972
0.107993
0.110963
0.114974
0.117995
0.117995
0.113984
0.110963
0.113984
0.118985
0.115964
0.107003
0.100960
0.088978
0.069964
0.062983
0.071995
0.071995
0.056002
0.046000
0.051001
0.048969
0.031986
0.016983
0.016983
0.022974
0.022974
0.020005
0.018963
0.023964
0.025006
0.015993
0.008960
0.023964
0.044958
0.041989
0.016983
0.006981
0.015003
0.017973
0.008960
0.003959
0.010002
0.020994
0.025995
0.020005
0.003959
-0.002032
0.007971
0.020005
0.015993
0.005001
0.005001
0.013961
0.017973
0.010002
-0.002032
-0.010002
-0.012034
-0.023026
-0.039019
-0.045010
-0.038029
-0.034018
-0.027037
-0.005001
0.006981
-0.014014
-0.040999
-0.038029
-0.027037
-0.048032
-0.086999
-0.096011
-0.073037
-0.048032
-0.030997
-0.005001
0.022974
0.027975
0.012972
0.005001
0.005991
0.000000
-0.012034
-0.010002
0.002969
0.001980
-0.018025
-0.025995
-0.005001
0.007971
-0.023026
-0.071995
-0.078038
-0.039019
-0.008023
-0.020005
-0.061003
-0.081008
-0.056002
-0.035998
-0.086999
-0.248025
-0.661035
-1.441002
-2.185025
-2.092035
-0.996006
0.204004
0.608002
0.302985
-0.056002
-0.140032
-0.074027
-0.029017
-0.020994
-0.006043
0.013961
0.008960
-0.002032
0.025006
0.083977
0.113984
0.102992
0.090958
0.099970
0.115964
0.124976
0.121955
0.107993
0.107003
0.126956
0.138000
0.115964
0.076997
0.056002
0.064963
0.092000
0.112004
0.097991
0.058972
0.036988
0.056992
0.085957
0.086999
0.066004
0.056002
0.059961
0.057982
0.044958
0.032976
0.027975
0.025006
0.020994
0.021984
0.023964
0.021984
0.015993
0.012972
0.017973
0.023964
0.022974
0.020994
0.025006
0.025995
0.015003
0.005991
0.013961
0.025006
0.023964
0.020005
0.020005
0.016983
0.011982
0.008960
0.005001
-0.020005
-0.068036
-0.102002
-0.094032
-0.057044
-0.030997
-0.023026
-0.010002
0.015993
0.036988
0.037977
0.030997
0.025995
0.026985
0.029955
0.031986
0.028965
0.023964
0.020994
0.020005
0.020005
0.017973
0.011982
0.005001
0.005001
0.006981
0.006981
0.006981
0.010002
0.010002
0.012972
0.032976
0.039957
-0.015003
-0.191033
-0.646031
-1.451995
-2.131002
-1.896001
-0.718027
0.398996
0.633997
0.250994
-0.061003
-0.089031
-0.025995
0.003959
0.022974
0.048969
0.069964
0.081998
0.092000
0.102992
0.117006
0.131957
0.134978
0.121955
0.104972
0.094969
0.088978
0.081998
0.078976
0.079966
0.080956
0.086999
0.104972
0.130967
0.143991
0.126956
0.087989
0.062983
0.071995
0.097001
0.103982
0.085957
0.062983
0.051991
0.054960
0.053971
0.041989
0.025006
0.025995
0.044958
0.063973
0.068974
0.066004
0.057982
0.035998
0.012972
0.015993
0.043968
0.062983
0.057982
0.044958
0.037977
0.043968
0.062983
0.077986
0.067984
0.035998
0.012972
0.016983
0.031986
0.030997
0.001980
-0.038029
-0.056002
-0.039019
-0.005001
0.021984
0.037977
0.051001
0.061003
0.066994
0.069964
0.071995
0.071995
0.074965
0.078976
0.077986
0.073975
0.072985
0.073975
0.073975
0.069964
0.067984
0.069964
0.066994
0.057982
0.053971
0.066004
0.075955
0.061003
0.034956
0.033966
0.061993
0.074965
0.020005
-0.191033
-0.702034
-1.507007
-2.115009
-1.826037
-0.651032
0.456978
0.695001
0.299964
-0.030007
-0.071006
-0.020994
0.005001
0.037977
0.076997
0.093980
0.097001
0.102992
0.112004
0.112994
0.112004
0.122997
0.143001
0.154983
0.156963
0.156963
0.161964
0.161964
0.153993
0.150972
0.161964
0.171966
0.161964
0.138000
0.115964
0.103982
0.097991
0.084967
0.057982
0.027975
0.022974
0.048969
0.075955
0.077986
0.067984
0.068974
0.066994
0.046000
0.028965
0.041989
0.069964
0.072985
0.054960
0.046990
0.054960
0.056002
0.033966
0.006981
0.001980
0.030997
0.063973
0.061003
0.026985
0.007971
0.021984
0.041989
0.046000
0.029955
-0.007033
-0.056002
-0.085019
-0.079028
-0.061003
-0.043031
-0.003022
0.054960
0.084967
0.075955
0.058972
0.053971
0.056992
0.066004
0.075955
0.075955
0.068974
0.064963
0.063973
0.059961
0.051001
0.046000
0.048969
0.053971
0.054960
0.052981
0.051991
0.052981
0.056002
0.056002
0.047980
0.051991
0.074965
0.052981
-0.105024
-0.500009
-1.219025
-2.001025
-2.100005
-1.120045
0.194002
0.739959
0.422960
-0.005001
-0.099033
-0.019015
0.028965
0.043968
0.067984
0.092990
0.107003
0.113984
0.119975
0.128987
0.138990
0.144981
0.144981
0.146960
0.153993
0.161964
0.169986
0.184000
0.196972
0.191970
0.171966
0.158004
0.153993
0.146960
0.138990
0.143991
0.156963
0.153993
0.131957
0.115964
0.120965
0.134978
0.136958
0.124976
0.108983
0.099970
0.097001
0.092990
0.086999
0.085957
0.090958
0.092990
0.086999
0.084967
0.087989
0.079966
0.056002
0.041989
0.044958
0.044958
0.030997
0.020005
0.015993
0.015003
0.018963
0.020005
0.005991
-0.011044
-0.016045
-0.025995
-0.047042
-0.056002
-0.035008
0.005991
0.044958
0.053971
0.032976
0.025995
0.051001
0.068974
0.053971
0.030997
0.028965
0.053971
0.088978
0.098981
0.071995
0.046990
0.043968
0.044958
0.046990
0.063973
0.079966
0.071995
0.052981
0.040999
0.035998
0.029955
0.026985
0.046000
0.085957
0.075955
-0.066994
-0.422022
-1.096029
-1.916995
-2.167000
-1.320038
0.015003
0.687968
0.447966
0.005001
-0.127008
-0.055012
0.000990
0.018963
0.039957
0.066994
0.092990
0.109973
0.117006
0.124976
0.140969
0.150972
0.153993
0.158994
0.166965
0.169986
0.170976
0.173998
0.175977
0.178999
0.179989
0.173998
0.171966
0.182958
0.189991
0.176967
0.153003
0.138000
0.131957
0.123986
0.114974
0.110963
0.107993
0.102992
0.100960
0.103982
0.103982
0.097991
0.089968
0.083977
0.077986
0.071995
0.071995
0.076997
0.075955
0.068974
0.063973
0.066004
0.071995
0.073975
0.068974
0.064963
0.069964
0.072985
0.058972
0.040999
0.039957
0.033966
-0.009012
-0.068036
-0.081008
-0.038029
0.010002
0.032976
0.042978
0.054960
0.063973
0.071006
0.074965
0.069964
0.061993
0.059961
0.066004
0.067984
0.066004
0.064963
0.062983
0.057982
0.056002
0.059961
0.064963
0.064963
0.059961
0.056992
0.057982
0.053971
0.043968
0.036988
0.043968
0.062983
0.059961
-0.023026
-0.296004
-0.879001
-1.655009
-2.053016
-1.507007
-0.301995
0.558980
0.550958
0.130967
-0.092000
-0.065015
-0.009012
0.016983
0.052981
0.085957
0.094969
0.095959
0.108983
0.124976
0.133989
0.133989
0.130967
0.132999
0.141959
0.153003
0.159984
0.163995
0.160974
0.151961
0.145970
0.148002
0.148002
0.140969
0.132999
0.128987
0.121955
0.104972
0.086999
0.084967
0.102992
0.108983
0.084967
0.058972
0.063973
0.086999
0.093980
0.078976
0.056002
0.038967
0.044958
0.068974
0.084967
0.072985
0.042978
0.022974
0.033966
0.063973
0.073975
0.053971
0.030997
0.029955
0.049959
0.067984
0.069964
0.054960
0.037977
0.029955
0.028965
0.031986
0.037977
0.029955
-0.002032
-0.042041
-0.064025
-0.060014
-0.037040
-0.012034
0.005001
0.020005
0.039957
0.056002
0.059961
0.061993
0.067984
0.071995
0.069964
0.064963
0.059961
0.054960
0.056002
0.058972
0.061003
0.061003
0.063973
0.066994
0.061003
0.049959
0.042978
0.046000
0.053971
0.053971
0.034956
0.018963
0.037977
0.069964
0.051991
-0.102002
-0.548040
-1.361036
-2.119020
-2.037022
-0.948027
0.259955
0.659003
0.323979
-0.056002
-0.147012
-0.090020
-0.038029
0.005001
0.046990
0.071995
0.080956
0.088978
0.100960
0.112004
0.119975
0.129977
0.140969
0.150972
0.154983
0.158004
0.158004
0.153003
0.145970
0.143001
0.143991
0.143991
0.143001
0.139980
0.132999
0.124976
0.117006
0.110963
0.107003
0.102992
0.097001
0.088978
0.079966
0.074965
0.074965
0.076997
0.074965
0.071006
0.063973
0.057982
0.059961
0.064963
0.063973
0.053971
0.049959
0.056002
0.054960
0.043968
0.046000
0.066004
0.073975
0.057982
0.038967
0.038967
0.048969
0.051991
0.046000
0.037977
0.033966
0.036988
0.041989
0.040999
0.035998
0.039957
0.048969
0.046990
0.032976
0.022974
0.022974
0.022974
0.006981
-0.030007
-0.061003
-0.058034
-0.030997
-0.012034
-0.002032
0.013961
0.038967
0.052981
0.048969
0.040999
0.043968
0.056992
0.066994
0.064963
0.056002
0.051991
0.051001
0.043968
0.033966
0.032976
0.038967
0.039957
0.034956
0.030997
0.026985
0.025006
0.029955
0.030997
0.015003
0.008960
0.032976
0.034956
-0.049021
-0.299026
-0.877021
-1.724035
-2.176012
-1.558008
-0.252036
0.603001
0.533975
0.104972
-0.095021
-0.064025
-0.010002
0.012972
0.032976
0.054960
0.077986
0.100960
0.112994
0.110963
0.110963
0.120965
0.131957
0.135968
0.136958
0.138000
0.139980
0.141959
0.139980
0.138990
0.141959
0.145970
0.145970
0.138990
0.132999
0.131957
0.129977
0.121955
0.109973
0.098981
0.094969
0.093980
0.086999
0.075955
0.074965
0.082987
0.086999
0.079966
0.071995
0.067984
0.064963
0.059961
0.056002
0.056992
0.062983
0.063973
0.056992
0.048969
0.049959
0.053971
0.052981
0.051991
0.052981
0.054960
0.051991
0.047980
0.047980
0.048969
0.046990
0.043968
0.044958
0.051991
0.059961
0.061993
0.054960
0.047980
0.051001
0.057982
0.056992
0.049959
0.043968
0.046990
0.052981
0.053971
0.046000
0.039957
0.043968
0.051991
0.056992
0.056002
0.053971
0.052981
0.053971
0.052981
0.052981
0.052981
0.049959
0.044958
0.042978
0.046000
0.047980
0.047980
0.053971
0.061993
0.064963
0.061993
0.059961
0.059961
0.057982
0.053971
0.051001
0.048969
0.049959
0.051001
0.051001
0.051001
0.053971
0.056002
0.051991
0.046990
0.047980
0.052981
0.052981
0.048969
0.042978
0.036988
0.035998
0.041989
0.043968
0.035998
0.026985
0.032976
0.046990
0.052981
0.048969
0.042978
0.031986
0.006981
-0.018025
-0.023026
-0.008023
0.005991
0.010992
0.016983
0.025006
0.030997
0.035998
0.043968
0.052981
0.054960
0.051991
0.052981
0.057982
0.058972
0.054960
0.051001
0.051991
0.052981
0.051001
0.041989
0.028965
0.021984
0.026985
0.031986
0.025995
0.015003
0.015993
0.025995
0.020994
0.003959
0.015003
0.041989
0.015003
-0.121017
-0.467033
-1.165003
-1.972998
-2.104017
-1.146040
0.144981
0.690989
0.407957
0.013961
-0.078038
-0.010002
0.031986
0.051001
0.080956
0.105961
0.112004
0.109973
0.112004
0.118985
0.121955
0.117995
0.117995
0.128987
0.140969
0.144981
0.144981
0.143001
0.138000
0.131957
0.124976
0.112994
0.102002
0.100960
0.107003
0.107003
0.102002
0.099970
0.098981
0.092000
0.080956
0.072985
0.061993
0.052981
0.056002
0.063973
0.054960
0.032976
0.020005
0.022974
0.030997
0.033966
0.031986
0.028965
0.027975
0.026985
0.018963
0.006981
0.000000
0.003959
0.012972
0.018963
0.017973
0.012972
0.006981
0.006981
0.015003
0.025006
0.026985
0.015993
0.003959
0.006981
0.026985
0.039957
0.025995
0.001980
-0.001042
0.016983
0.023964
0.005001
-0.011044
0.002969
0.033966
0.043968
0.023964
0.006981
0.013961
0.026985
0.021984
0.006981
0.005001
0.015003
0.020994
0.020994
0.020005
0.012972
0.005001
0.003959
0.015993
0.027975
0.027975
0.020005
0.015993
0.022974
0.026985
0.018963
0.010992
0.011982
0.001980
-0.030007
-0.055012
-0.048032
-0.030007
-0.024016
-0.022036
-0.007033
0.003959
-0.001042
-0.002032
0.010002
0.020005
0.020005
0.016983
0.013961
0.012972
0.015993
0.020005
0.017973
0.012972
0.010002
0.006981
0.000990
-0.003022
0.000000
0.005001
0.005991
0.001980
-0.003022
-0.008023
-0.016045
-0.025006
-0.013024
0.022974
0.008960
-0.137010
-0.485995
-1.121034
-1.885999
-2.126001
-1.328998
-0.037040
0.655981
0.466980
0.042978
-0.107003
-0.058034
-0.005001
0.028965
0.061003
0.069964
0.059961
0.054960
0.067984
0.089968
0.105961
0.107003
0.099970
0.098981
0.108983
0.120965
0.123986
0.117006
0.109973
0.108983
0.113984
0.113984
0.104972
0.093980
0.088978
0.088978
0.085957
0.077986
0.071006
0.067984
0.066004
0.059961
0.046990
0.032976
0.031986
0.040999
0.042978
0.031986
0.020994
0.018963
0.022974
0.021984
0.016983
0.012972
0.012972
0.012972
0.012972
0.017973
0.023964
0.020994
0.010002
0.005991
0.012972
0.015993
0.010992
0.007971
0.013961
0.022974
0.025006
0.025995
0.025006
0.020005
0.012972
0.008960
0.011982
0.013961
0.011982
0.005991
0.001980
0.002969
0.007971
0.010002
0.010992
0.015993
0.025006
0.023964
0.013961
0.006981
0.010002
0.015003
0.012972
0.010002
0.011982
0.017973
0.020005
0.013961
0.005001
0.001980
0.001980
0.002969
0.010992
0.020005
0.020994
0.013961
0.011982
0.015993
0.015993
-0.001042
-0.030997
-0.051001
-0.045010
-0.029017
-0.029017
-0.032038
-0.019015
0.000990
0.007971
0.006981
0.010992
0.015993
0.013961
0.012972
0.017973
0.021984
0.017973
0.010992
0.005991
0.005001
0.006981
0.010992
0.015993
0.015993
0.006981
-0.002032
-0.004011
-0.004011
-0.008023
-0.011044
-0.012034
-0.014014
-0.008023
0.007971
0.003959
-0.061003
-0.296994
-0.887023
-1.737007
-2.182003
-1.587025
-0.309028
0.579975
0.573984
0.148992
-0.094032
-0.079028
-0.006043
0.027975
0.041989
0.056002
0.066994
0.071006
0.071995
0.076997
0.086999
0.094969
0.097001
0.097001
0.099970
0.100960
0.100960
0.104972
0.117995
0.127998
0.120965
0.099970
0.084967
0.088978
0.099970
0.099970
0.090958
0.082987
0.074965
0.057982
0.037977
0.030997
0.034956
0.034956
0.026985
0.022974
0.023964
0.021984
0.020994
0.026985
0.030997
0.025995
0.015993
0.010002
0.005991
0.003959
0.001980
-0.003022
-0.010002
-0.006043
0.007971
0.016983
0.010002
0.000000
0.001980
0.008960
0.001980
-0.016045
-0.020005
-0.003022
0.008960
0.000990
-0.008023
-0.006043
-0.001042
0.005991
0.013961
0.012972
-0.008023
-0.030997
-0.037040
-0.030997
-0.032038
-0.035998
-0.022036
0.008960
0.025995
0.008960
-0.020994
-0.037040
-0.030997
-0.015003
-0.001042
-0.001042
-0.012034
-0.013024
0.005001
0.010992
-0.019015
-0.050011
-0.045010
-0.024016
-0.019015
-0.018025
-0.010002
-0.007033
-0.014014
-0.020994
-0.030997
-0.047042
-0.065015
-0.079028
-0.083040
-0.069026
-0.049021
-0.040009
-0.035998
-0.030007
-0.028027
-0.029017
-0.022036
-0.015003
-0.015003
-0.011044
-0.001042
-0.002032
-0.014014
-0.017035
-0.005001
0.001980
-0.002032
-0.008023
-0.011044
-0.013024
-0.016045
-0.014014
-0.011044
-0.016045
-0.027037
-0.033028
-0.029017
-0.030997
-0.038029
-0.017035
0.015003
-0.024016
-0.214007
-0.662024
-1.441002
-2.175022
-2.069999
-0.937034
0.283970
0.644000
0.286992
-0.068036
-0.125028
-0.055012
-0.008023
0.012972
0.029955
0.049959
0.066004
0.069964
0.067984
0.067984
0.072985
0.080956
0.090958
0.097991
0.095959
0.087989
0.084967
0.088978
0.097001
0.098981
0.089968
0.079966
0.082987
0.093980
0.092990
0.075955
0.061003
0.056992
0.054960
0.048969
0.039957
0.031986
0.020994
0.010002
0.006981
0.012972
0.018963
0.015993
0.008960
0.007971
0.013961
0.017973
0.013961
0.006981
0.001980
-0.001042
-0.002032
-0.001042
-0.002032
-0.006043
-0.010002
-0.009012
-0.005001
-0.002032
-0.004011
-0.010002
-0.011044
-0.008023
-0.007033
-0.013024
-0.016045
-0.016045
-0.020005
-0.020994
-0.017035
-0.014014
-0.017035
-0.019015
-0.019015
