---
Mammal:            mouse
Fs:                1000
Integration_level: electrocardiogram

Channels:

    - type:   electrography
      name:   Data
      unit:   mV
      enable: yes

---

0.009996
0.022024
0.003007
-0.019993
-0.027998
-0.031005
-0.039985
-0.049982
-0.046975
-0.032996
-0.031005
-0.049006
-0.067008
-0.069974
-0.067983
-0.068999
-0.068999
-0.078995
-0.121987
-0.167011
-0.141005
-0.036978
0.042017
0.019017
-0.052013
-0.077979
-0.064001
-0.055996
-0.037994
-0.064001
-0.323986
-0.788002
-0.952006
-0.398999
0.500019
0.920026
0.577023
-0.045999
-0.402981
-0.421999
-0.323011
-0.249989
-0.202974
-0.162013
-0.129993
-0.108984
-0.092974
-0.078995
-0.067983
-0.054004
-0.044008
-0.044983
-0.049006
-0.050997
-0.055996
-0.067983
-0.078995
-0.073997
-0.054980
-0.042992
-0.049982
-0.065992
-0.077979
-0.087976
-0.087976
-0.073997
-0.065992
-0.078995
-0.095006
-0.087976
-0.067008
-0.055996
-0.062010
-0.069974
-0.067008
-0.057011
-0.054004
-0.055996
-0.052989
-0.044008
-0.037994
-0.045999
-0.057011
-0.052013
-0.026982
-0.008005
-0.014994
-0.031980
-0.039985
-0.044008
-0.049982
-0.062010
-0.077004
-0.092974
-0.108984
-0.121987
-0.114998
-0.077979
-0.039985
-0.036978
-0.052013
-0.044983
-0.013979
0.006989
0.001016
-0.013003
-0.016986
-0.011987
-0.005973
-0.008005
-0.019993
-0.037994
-0.045999
-0.042992
-0.039985
-0.037994
-0.029014
-0.023000
-0.034012
-0.049982
-0.059978
-0.069974
-0.072006
-0.049006
-0.016986
-0.016986
-0.057011
-0.095981
-0.108009
-0.113982
-0.123003
-0.118980
-0.211995
-0.553007
-0.898977
-0.671012
0.190011
0.901009
0.807994
0.185013
-0.305985
-0.433986
-0.376975
-0.293997
-0.211995
-0.134991
-0.080986
-0.064976
-0.069974
-0.068999
-0.054004
-0.042992
-0.047990
-0.052013
-0.044983
-0.031980
-0.023000
-0.018977
-0.026982
-0.039985
-0.047990
-0.049006
-0.054004
-0.064001
-0.067983
-0.064976
-0.062010
-0.062010
-0.064976
-0.070990
-0.075988
-0.072981
-0.064001
-0.059978
-0.064001
-0.068999
-0.067983
-0.065992
-0.064976
-0.062985
-0.060994
-0.054004
-0.039985
-0.029014
-0.031980
-0.041976
-0.041976
-0.041001
-0.046975
-0.049006
-0.029989
-0.006989
-0.003007
-0.016010
-0.034987
-0.067983
-0.118005
-0.157990
-0.154983
-0.106993
-0.050997
-0.021984
-0.023975
-0.027998
-0.013979
0.009021
0.018001
0.011012
-0.004998
-0.021984
-0.031980
-0.029989
-0.019993
-0.011012
-0.006989
-0.008005
-0.019993
-0.037994
-0.049982
-0.046975
-0.036003
-0.029014
-0.027998
-0.029014
-0.021984
-0.009996
-0.006989
-0.023975
-0.049006
-0.057987
-0.042992
-0.034987
-0.054004
-0.059003
-0.049006
-0.198992
-0.628995
-0.983986
-0.692996
0.167987
0.792024
0.663007
0.121012
-0.269006
-0.361005
-0.305985
-0.236986
-0.190986
-0.151001
-0.101995
-0.062985
-0.049982
-0.054980
-0.064001
-0.062010
-0.037994
-0.018001
-0.031980
-0.059978
-0.057987
-0.027998
-0.004998
-0.011012
-0.032996
-0.042992
-0.039010
-0.042992
-0.062985
-0.080011
-0.072981
-0.054004
-0.047990
-0.054980
-0.057011
-0.052989
-0.055996
-0.072981
-0.085009
-0.075013
-0.049982
-0.036003
-0.042992
-0.055996
-0.057011
-0.046975
-0.036003
-0.029989
-0.026007
-0.026982
-0.026982
-0.023975
-0.021984
-0.024991
-0.023000
-0.016010
-0.009996
-0.003007
-0.003982
-0.036003
-0.095006
-0.131984
-0.131009
-0.111991
-0.087976
-0.049982
-0.014994
-0.005973
-0.011012
0.006014
0.034987
0.037019
0.011012
-0.000975
0.014019
0.026007
0.017026
0.006989
0.006989
0.000000
-0.019993
-0.026982
-0.013979
-0.008980
-0.029989
-0.052989
-0.055996
-0.044983
-0.026982
-0.013979
-0.018977
-0.034987
-0.042992
-0.041976
-0.042992
-0.041001
-0.044983
-0.065992
-0.064976
-0.046975
-0.197000
-0.625013
-0.948999
-0.612985
0.270022
0.891012
0.740986
0.144012
-0.320979
-0.464991
-0.412978
-0.302002
-0.210979
-0.172010
-0.149985
-0.119996
-0.105002
-0.092974
-0.037994
0.034012
0.041001
-0.008980
-0.031980
-0.016010
-0.018001
-0.039985
-0.039010
-0.016986
-0.013003
-0.026007
-0.032996
-0.034012
-0.039985
-0.046975
-0.050997
-0.057011
-0.062985
-0.062010
-0.054980
-0.047990
-0.047990
-0.057987
-0.070990
-0.072006
-0.064001
-0.059003
-0.057011
-0.054980
-0.049006
-0.036978
-0.023975
-0.019993
-0.024991
-0.031005
-0.032996
-0.036003
-0.034987
-0.031005
-0.029014
-0.026982
-0.021008
-0.004998
0.006014
-0.008005
-0.050997
-0.098988
-0.126010
-0.128001
-0.106993
-0.062010
-0.014994
0.004998
-0.001991
-0.004998
0.011012
0.029014
0.036003
0.031005
0.023000
0.014019
0.001016
-0.011012
-0.011012
0.001016
0.009021
0.004023
-0.001991
0.003007
0.004998
-0.003982
-0.013979
-0.011987
-0.004998
-0.003007
-0.009996
-0.018977
-0.018001
-0.008005
-0.006989
-0.016010
-0.016010
-0.018977
-0.029989
-0.008980
-0.019993
-0.288999
-0.793000
-0.967976
-0.367994
0.573000
0.981995
0.615992
0.001016
-0.344995
-0.371976
-0.280994
-0.205006
-0.149985
-0.098988
-0.062985
-0.049982
-0.037994
-0.013003
0.000000
-0.013003
-0.019993
0.006989
0.040026
0.040026
0.006989
-0.023000
-0.021984
0.000000
0.006989
-0.008980
-0.019993
-0.011987
-0.006989
-0.021008
-0.039985
-0.050997
-0.054980
-0.047990
-0.024991
-0.005973
-0.018977
-0.050997
-0.064976
-0.054004
-0.037994
-0.024991
-0.011012
0.000000
-0.001991
-0.009996
-0.013003
-0.003982
0.013003
0.024991
0.018001
-0.003007
-0.016986
-0.009996
0.004023
0.009021
0.008005
0.014994
0.024016
0.004998
-0.047990
-0.095006
-0.103011
-0.078995
-0.047990
-0.018001
0.000000
0.004023
0.004998
0.018001
0.040026
0.055996
0.057011
0.037019
0.009996
0.001991
0.017026
0.031005
0.027998
0.014994
0.004023
-0.003982
-0.011987
-0.013979
-0.009996
-0.000975
0.006014
0.006014
-0.003982
-0.029014
-0.068999
-0.091999
-0.073997
-0.055996
-0.085985
-0.123003
-0.100004
-0.046975
-0.006989
0.052013
0.075988
-0.159006
-0.651995
-0.891012
-0.397983
0.505992
0.980004
0.684016
0.073022
-0.315006
-0.392985
-0.334998
-0.246007
-0.154008
-0.095006
-0.078995
-0.073997
-0.057987
-0.039010
-0.026982
-0.018001
-0.006989
-0.001991
-0.004998
-0.008980
-0.008980
-0.008980
-0.013979
-0.018977
-0.019993
-0.016010
-0.013003
-0.016010
-0.023000
-0.024991
-0.023000
-0.031005
-0.044983
-0.049006
-0.039985
-0.037994
-0.046975
-0.049006
-0.036003
-0.027998
-0.034012
-0.036003
-0.027998
-0.021008
-0.021008
-0.023000
-0.021008
-0.018001
-0.009996
0.001991
0.008005
0.001991
-0.003982
0.001991
0.017026
0.022024
0.009996
-0.003982
0.001016
0.013003
0.000000
-0.044983
-0.092974
-0.114998
-0.110000
-0.080986
-0.031005
0.011012
0.017026
0.011012
0.027998
0.055996
0.057987
0.036003
0.021008
0.018001
0.013003
0.011987
0.024016
0.036003
0.029989
0.014994
0.009996
0.016010
0.019017
0.011987
0.001016
-0.006989
-0.008005
-0.004998
-0.004998
-0.006989
-0.008005
-0.004998
-0.004998
-0.005973
-0.003007
-0.003982
-0.016986
-0.011012
-0.000975
-0.149985
-0.555973
-0.893003
-0.627979
0.215002
0.884998
0.784995
0.170018
-0.305985
-0.405988
-0.336989
-0.279003
-0.224998
-0.157990
-0.098988
-0.034987
0.026007
0.036003
0.001991
-0.003982
0.022024
0.019017
-0.019993
-0.039010
-0.021984
-0.006989
-0.006989
0.001016
0.014994
-0.000975
-0.041976
-0.055996
-0.024991
0.004023
-0.003007
-0.019993
-0.023975
-0.031005
-0.044008
-0.039985
-0.018977
-0.008005
-0.008980
0.001991
0.019993
0.019017
-0.004998
-0.029989
-0.034012
-0.018977
0.004023
0.006989
-0.016010
-0.029989
-0.009996
0.019993
0.026007
0.013003
0.003007
-0.001991
-0.003007
0.013003
0.040026
0.050997
0.027998
-0.016010
-0.052989
-0.073997
-0.088992
-0.090983
-0.055996
0.004023
0.034012
0.014994
-0.001991
0.021008
0.057011
0.063025
0.052013
0.045999
0.042992
0.034987
0.026007
0.018001
0.019017
0.032021
0.039010
0.016010
-0.019993
-0.031005
-0.008005
0.018001
0.022024
0.009021
-0.001991
-0.008005
-0.004998
0.006989
0.006014
-0.027998
-0.052989
-0.034987
-0.049982
-0.146978
-0.178999
-0.054980
-0.060994
-0.453979
-0.815999
-0.481001
0.405013
0.952006
0.709006
0.106018
-0.284001
-0.351984
-0.280994
-0.200983
-0.128001
-0.060994
-0.013979
-0.001991
-0.009996
-0.014994
-0.004998
0.008005
0.011987
0.011987
0.013003
0.014019
0.009996
0.006014
0.008005
0.013003
0.011012
0.001991
-0.008980
-0.013979
-0.014994
-0.018001
-0.026007
-0.034012
-0.034012
-0.023975
-0.006989
0.004023
0.000000
-0.004998
0.003007
0.009996
-0.000975
-0.011987
-0.005973
0.009021
0.019017
0.024991
0.029014
0.027998
0.027023
0.027998
0.031005
0.031005
0.032996
0.032996
0.029989
0.027023
0.032021
0.044008
0.054004
0.055020
0.042017
0.011987
-0.027998
-0.059978
-0.068999
-0.052013
-0.013979
0.031005
0.054004
0.047990
0.042017
0.060018
0.085009
0.093014
0.085009
0.073022
0.070015
0.073997
0.070015
0.060018
0.057011
0.063025
0.065017
0.052013
0.041001
0.041001
0.047990
0.052013
0.050022
0.042017
0.034987
0.042992
0.060018
0.060994
0.034012
0.004998
0.009996
0.045999
0.062010
0.041001
0.034987
0.021008
-0.185988
-0.618999
-0.860983
-0.444998
0.418016
0.943026
0.710998
0.088016
-0.348977
-0.417976
-0.270997
-0.090983
0.011987
0.016010
-0.016010
-0.016010
0.011987
0.031005
0.029989
0.031005
0.044008
0.054004
0.054004
0.052013
0.055020
0.052989
0.042992
0.037994
0.042017
0.044008
0.034012
0.023000
0.019017
0.013003
0.001991
0.001016
0.016010
0.031005
0.031005
0.023000
0.017026
0.014019
0.011012
0.009996
0.011987
0.018001
0.029989
0.042017
0.045999
0.042992
0.042017
0.045024
0.045999
0.045024
0.045024
0.045999
0.052013
0.067008
0.078020
0.073022
0.059003
0.052013
0.050997
0.052013
0.049006
0.027023
-0.011987
-0.037994
-0.034012
-0.014994
0.014019
0.045024
0.055996
0.052989
0.068999
0.109025
0.133000
0.121987
0.098988
0.090007
0.087000
0.078995
0.072006
0.078020
0.083018
0.075988
0.070990
0.082002
0.091999
0.078020
0.055020
0.047990
0.057987
0.064001
0.063025
0.065992
0.068999
0.065017
0.057011
0.055020
0.057011
0.055996
0.049006
0.034012
0.042017
0.067008
-0.067983
-0.494005
-0.860008
-0.573975
0.303018
0.960011
0.847004
0.270022
-0.182981
-0.307976
-0.244991
-0.151976
-0.091999
-0.057987
-0.026007
0.013003
0.042992
0.055996
0.060018
0.063025
0.055020
0.024016
-0.003007
0.009021
0.042017
0.041001
0.000000
-0.018977
0.029989
0.110000
0.142021
0.098988
0.032996
0.013003
0.044008
0.067008
0.045999
0.011987
0.013003
0.040026
0.050997
0.034987
0.022024
0.042992
0.078995
0.083018
0.054004
0.034012
0.042992
0.050997
0.044008
0.039010
0.045999
0.055996
0.062010
0.065017
0.072006
0.075988
0.072006
0.068024
0.073022
0.080011
0.078020
0.072006
0.068024
0.060018
0.036003
0.001016
-0.032996
-0.044008
-0.014994
0.042017
0.082002
0.083018
0.075013
0.091999
0.121012
0.136007
0.136007
0.129017
0.108009
0.083993
0.083018
0.111016
0.131009
0.121012
0.098988
0.090007
0.096021
0.101995
0.101020
0.093014
0.086025
0.087000
0.091023
0.088992
0.078995
0.072006
0.073997
0.080011
0.077004
0.067008
0.070990
0.091999
0.096021
0.085009
0.080986
-0.032996
-0.421999
-0.838999
-0.668981
0.185988
0.953022
0.937987
0.362021
-0.121012
-0.251005
-0.190986
-0.114998
-0.059978
-0.016010
0.022024
0.052013
0.073022
0.080986
0.080011
0.078995
0.082002
0.088992
0.096997
0.098988
0.095006
0.088016
0.085009
0.085009
0.083018
0.080011
0.078020
0.083018
0.090007
0.085009
0.065992
0.055020
0.065017
0.077004
0.073022
0.065017
0.063025
0.059003
0.055996
0.070015
0.090007
0.098013
0.091999
0.088016
0.090007
0.095006
0.100004
0.104027
0.104027
0.104027
0.110000
0.114023
0.111016
0.114023
0.123003
0.127026
0.124019
0.118005
0.111991
0.111016
0.118005
0.114998
0.078995
0.024991
-0.005973
0.004998
0.042017
0.083993
0.119021
0.142021
0.142996
0.134016
0.136007
0.160022
0.183997
0.180990
0.154008
0.136007
0.152992
0.185988
0.200007
0.182006
0.150026
0.119021
0.078020
0.031005
0.031005
0.103011
0.157015
0.096021
-0.006989
0.014994
0.155024
0.224023
0.150026
0.080011
0.108009
0.152992
0.146003
0.124994
0.129017
0.154008
0.141005
-0.067983
-0.497012
-0.737004
-0.315981
0.563003
1.108005
0.876993
0.241009
-0.190011
-0.247998
-0.141980
-0.049982
0.013003
0.059003
0.070015
0.064001
0.078020
0.101995
0.106993
0.114023
0.149010
0.167987
0.129993
0.080986
0.086025
0.105002
0.065017
0.011012
0.055996
0.188995
0.267990
0.226014
0.147019
0.121012
0.129993
0.124019
0.103011
0.101995
0.124019
0.137998
0.116989
0.082002
0.078020
0.114998
0.147019
0.137998
0.116014
0.121987
0.150026
0.162013
0.152992
0.139989
0.139014
0.147019
0.155999
0.160997
0.167987
0.172010
0.162989
0.146003
0.144987
0.162013
0.173026
0.160997
0.139989
0.136007
0.150026
0.152017
0.126010
0.083993
0.050022
0.040026
0.062010
0.110000
0.162013
0.188020
0.185013
0.174001
0.182006
0.213011
0.239993
0.229021
0.190011
0.167011
0.174001
0.185988
0.190986
0.198016
0.203990
0.190011
0.167011
0.162013
0.175017
0.185013
0.185988
0.178024
0.157015
0.146003
0.160022
0.177008
0.170994
0.157990
0.160997
0.169003
0.165996
0.155024
0.147994
0.167011
0.185988
0.037994
-0.387012
-0.742002
-0.469989
0.379006
1.045996
0.980004
0.421023
-0.065992
-0.228005
-0.169003
-0.064976
0.003007
0.032996
0.054004
0.087000
0.127026
0.144987
0.132024
0.116989
0.132024
0.159006
0.157990
0.127026
0.101995
0.106993
0.126010
0.129017
0.124019
0.133000
0.151001
0.151001
0.134991
0.121012
0.127026
0.152992
0.173026
0.157015
0.121012
0.114023
0.137998
0.147994
0.136007
0.134016
0.147019
0.151001
0.134991
0.119021
0.121987
0.141005
0.162013
0.165996
0.151001
0.139014
0.141005
0.144987
0.139014
0.141005
0.162013
0.174001
0.160997
0.149010
0.159006
0.169003
0.162013
0.157990
0.159006
0.132024
0.073022
0.034987
0.055996
0.111991
0.152992
0.162989
0.162989
0.177008
0.201999
0.223007
0.231012
0.224998
0.206021
0.188020
0.183997
0.188995
0.192002
0.192002
0.190011
0.188995
0.185988
0.183022
0.180990
0.183997
0.190011
0.183997
0.167987
0.164004
0.180990
0.197000
0.188020
0.170018
0.167987
0.183022
0.193993
0.182006
0.154008
0.155024
0.164004
0.014019
-0.377990
-0.689014
-0.417976
0.403022
1.067004
0.999021
0.410011
-0.087000
-0.213986
-0.126986
-0.037994
0.011987
0.068999
0.137023
0.178024
0.178999
0.167011
0.164004
0.170018
0.190011
0.211995
0.206021
0.178024
0.167987
0.183022
0.197000
0.195009
0.175017
0.139014
0.103011
0.095006
0.119021
0.144012
0.142996
0.136007
0.160997
0.208013
0.219025
0.175017
0.127026
0.111016
0.124994
0.167987
0.226014
0.254012
0.231987
0.201023
0.183997
0.162989
0.139989
0.144987
0.175992
0.201999
0.213011
0.224023
0.234019
0.226014
0.211020
0.208013
0.210004
0.197000
0.187004
0.205006
0.233003
0.224023
0.173026
0.118005
0.088016
0.086025
0.114023
0.160997
0.205006
0.226989
0.234994
0.242024
0.246007
0.244016
0.247023
0.252021
0.243000
0.221016
0.214027
0.229996
0.241009
0.231012
0.221016
0.229021
0.239993
0.238002
0.224998
0.211020
0.205006
0.214027
0.239017
0.252996
0.233003
0.198992
0.190011
0.203990
0.203990
0.188995
0.192002
0.211020
0.215002
0.211020
0.193018
0.027023
-0.356982
-0.648988
-0.357998
0.464991
1.094027
0.981995
0.390019
-0.064001
-0.146978
-0.052989
0.022024
0.060018
0.098988
0.139014
0.165020
0.182006
0.201023
0.211020
0.210004
0.206997
0.213011
0.216993
0.211995
0.208013
0.213011
0.215002
0.206021
0.198016
0.200007
0.196025
0.180015
0.169003
0.175992
0.188995
0.190011
0.183022
0.178024
0.183997
0.193018
0.192002
0.180015
0.172010
0.180990
0.205006
0.229996
0.237026
0.215002
0.185988
0.175992
0.185988
0.193993
0.190011
0.190986
0.208013
0.224998
0.223007
0.215002
0.218009
0.224998
0.221016
0.216993
0.223007
0.224023
0.201999
0.170018
0.152017
0.149010
0.141005
0.116989
0.100004
0.121012
0.170994
0.213011
0.226014
0.221016
0.211020
0.198016
0.195009
0.201999
0.197000
0.178999
0.188020
0.229021
0.237026
0.185988
0.152017
0.188995
0.249989
0.270997
0.247998
0.206021
0.170018
0.159006
0.172010
0.183022
0.178999
0.175992
0.188020
0.201023
0.197000
0.185013
0.175017
0.170994
0.174001
0.188020
0.192002
0.070015
-0.279978
-0.643990
-0.515988
0.226014
0.958995
1.014991
0.490022
-0.026982
-0.203990
-0.151001
-0.065992
-0.014994
0.023000
0.068999
0.110000
0.134991
0.147019
0.152017
0.154008
0.155999
0.151001
0.136007
0.128001
0.144012
0.160997
0.151001
0.131009
0.142021
0.165020
0.155024
0.123003
0.111991
0.123003
0.128001
0.123003
0.121012
0.119996
0.116989
0.114023
0.110000
0.104027
0.104027
0.108009
0.106018
0.093014
0.088016
0.111016
0.146003
0.157015
0.137023
0.124994
0.146003
0.165996
0.149010
0.106993
0.091023
0.124994
0.170994
0.180990
0.160997
0.134016
0.080011
-0.008005
-0.057011
-0.006989
0.090007
0.149010
0.152017
0.137023
0.127026
0.132024
0.146003
0.142996
0.118005
0.116014
0.162013
0.210004
0.210004
0.183997
0.172010
0.169003
0.154008
0.129993
0.116989
0.127026
0.152017
0.165020
0.154008
0.134016
0.131009
0.139014
0.139989
0.132024
0.127026
0.124019
0.116014
0.110000
0.116014
0.121987
0.111016
0.096997
0.106018
0.126010
0.119021
0.103011
0.098988
-0.031980
-0.418992
-0.755981
-0.504001
0.306025
0.953022
0.903000
0.379006
-0.083993
-0.246982
-0.195985
-0.088992
-0.003982
0.042017
0.062010
0.070015
0.077004
0.088992
0.100004
0.111991
0.127026
0.142996
0.144987
0.131009
0.110000
0.091999
0.088992
0.110000
0.141005
0.149010
0.129017
0.103011
0.085009
0.078020
0.090007
0.116014
0.121012
0.091023
0.060018
0.070990
0.124019
0.160997
0.142021
0.101995
0.108009
0.155999
0.167011
0.116014
0.070015
0.080986
0.108009
0.091023
0.050997
0.055020
0.101995
0.114998
0.057011
0.003007
0.034012
0.096021
0.067008
-0.032996
-0.041001
0.103011
0.247998
0.243000
0.133000
0.052989
0.040026
0.041001
0.047015
0.080011
0.121012
0.133000
0.124019
0.132024
0.157990
0.169003
0.152017
0.131009
0.128001
0.134016
0.134016
0.124019
0.110000
0.103011
0.108009
0.113007
0.106993
0.098988
0.105002
0.118005
0.109025
0.082002
0.070990
0.090007
0.111016
0.101995
0.080011
0.080986
0.100004
0.106993
0.106993
0.113007
0.109025
0.093990
0.080011
-0.023000
-0.346986
-0.701001
-0.584012
0.147994
0.888005
0.958995
0.436018
-0.067008
-0.203990
-0.123003
-0.049982
-0.024991
-0.000975
0.029989
0.052013
0.072006
0.106018
0.147019
0.167987
0.167011
0.170994
0.190011
0.201023
0.201023
0.220000
0.242024
0.229996
0.206997
0.198992
0.170018
0.100004
0.050997
0.057011
0.073022
0.065992
0.064001
0.085009
0.103011
0.101020
0.093014
0.087000
0.085009
0.090007
0.088992
0.073022
0.065992
0.091023
0.119996
0.118005
0.096997
0.086025
0.103011
0.137023
0.152017
0.126010
0.091999
0.091999
0.114998
0.113007
0.073997
0.032021
0.021008
0.065992
0.149010
0.205006
0.182006
0.113007
0.068024
0.059003
0.060018
0.072006
0.111016
0.157990
0.185988
0.183997
0.164004
0.142021
0.139014
0.159006
0.172010
0.162013
0.147019
0.150026
0.160997
0.160022
0.146003
0.129017
0.128001
0.141005
0.144012
0.121987
0.101020
0.105002
0.121012
0.123003
0.114998
0.110000
0.113007
0.119021
0.121987
0.113007
0.103011
0.113007
0.131009
0.128001
0.121987
0.104027
-0.062010
-0.444998
-0.729974
-0.445973
0.362021
1.012025
0.953997
0.380022
-0.114998
-0.238002
-0.141980
-0.052013
-0.009996
0.032021
0.080011
0.106993
0.114998
0.119996
0.121987
0.121012
0.129993
0.150026
0.167011
0.160022
0.139014
0.127026
0.128001
0.133000
0.131009
0.121987
0.114023
0.110000
0.111991
0.113007
0.108009
0.103011
0.109025
0.121987
0.121987
0.108009
0.098988
0.106018
0.119996
0.127026
0.128001
0.128001
0.124994
0.121987
0.128001
0.137998
0.141005
0.133000
0.124994
0.126010
0.133000
0.134991
0.132024
0.129993
0.131009
0.136007
0.144012
0.155024
0.162013
0.152992
0.129993
0.116989
0.124019
0.116989
0.075988
0.032996
0.029014
0.065992
0.123003
0.180015
0.198992
0.154008
0.088016
0.073022
0.118005
0.173026
0.211020
0.247023
0.270997
0.244016
0.192002
0.193993
0.241009
0.234019
0.165996
0.139014
0.172010
0.172010
0.124994
0.126010
0.182006
0.196025
0.150026
0.137998
0.187004
0.211020
0.167011
0.119021
0.126010
0.152017
0.142996
0.114998
0.126010
0.137998
-0.013003
-0.398999
-0.725992
-0.525009
0.233003
0.947008
1.019989
0.518995
-0.016010
-0.231987
-0.187004
-0.085009
-0.019993
0.023000
0.068024
0.105002
0.118005
0.114023
0.119021
0.139989
0.157015
0.152992
0.142021
0.139014
0.147019
0.157990
0.167011
0.160022
0.142021
0.129017
0.124994
0.119021
0.111016
0.108009
0.113007
0.121012
0.128001
0.119996
0.104027
0.098988
0.113007
0.123003
0.119996
0.119021
0.126010
0.128001
0.124019
0.121987
0.123003
0.123003
0.127026
0.128001
0.114998
0.105002
0.127026
0.162989
0.169003
0.141005
0.114998
0.111016
0.123003
0.139989
0.149010
0.134016
0.106018
0.100004
0.126010
0.146003
0.124994
0.078995
0.057987
0.080011
0.118005
0.144987
0.162013
0.173026
0.170018
0.164004
0.178024
0.198992
0.193018
0.165996
0.157015
0.174001
0.182006
0.167987
0.155024
0.160997
0.162013
0.144012
0.133000
0.149010
0.162013
0.144987
0.118005
0.104027
0.086025
0.055020
0.047990
0.088992
0.147019
0.178024
0.167987
0.141005
0.121012
0.111016
0.103011
0.100004
0.080011
-0.087976
-0.482992
-0.786986
-0.481976
0.382013
1.045996
0.944001
0.349017
-0.121012
-0.233979
-0.159006
-0.070990
0.001016
0.057987
0.080986
0.085009
0.109025
0.144987
0.134991
0.077004
0.054004
0.104027
0.160997
0.159006
0.134016
0.139989
0.154008
0.131009
0.098013
0.100004
0.121012
0.118005
0.096021
0.091999
0.105002
0.106993
0.096021
0.096021
0.111016
0.119996
0.110000
0.093014
0.087000
0.095006
0.110000
0.127026
0.137998
0.139014
0.129017
0.119021
0.121012
0.129993
0.132024
0.126010
0.131009
0.146003
0.154008
0.152017
0.147019
0.142996
0.136007
0.132024
0.137998
0.154008
0.167987
0.162989
0.137023
0.104027
0.075013
0.055996
0.059003
0.096021
0.144987
0.175017
0.178024
0.170018
0.167987
0.178024
0.198016
0.213011
0.203990
0.174001
0.152017
0.154008
0.165996
0.167011
0.155999
0.151001
0.160997
0.169003
0.159006
0.144987
0.146003
0.151001
0.146003
0.141005
0.142996
0.144987
0.150026
0.162013
0.160022
0.136007
0.121012
0.132024
0.146003
0.137998
0.129017
0.121012
-0.021984
-0.397983
-0.699985
-0.407979
0.430004
1.045996
0.888005
0.275996
-0.154008
-0.211995
-0.115973
-0.039010
0.011987
0.052013
0.068024
0.054004
0.029989
0.032021
0.067008
0.091023
0.078995
0.073997
0.101020
0.128001
0.147019
0.175992
0.187004
0.151001
0.114998
0.124994
0.146003
0.142996
0.132024
0.119021
0.088016
0.059003
0.082002
0.139014
0.152992
0.108009
0.070990
0.078995
0.095006
0.086025
0.075988
0.096021
0.126010
0.129993
0.109025
0.100004
0.116014
0.134016
0.134991
0.126010
0.119996
0.118005
0.119996
0.124994
0.126010
0.124019
0.119996
0.116989
0.119021
0.124994
0.129993
0.128001
0.119021
0.101020
0.068999
0.031005
0.014994
0.041001
0.093990
0.137998
0.157990
0.162013
0.164004
0.167011
0.167011
0.165020
0.165020
0.165996
0.157990
0.142021
0.131009
0.133000
0.139014
0.137998
0.134016
0.132024
0.132024
0.134991
0.139989
0.136007
0.116014
0.105002
0.116014
0.132024
0.129017
0.121012
0.119996
0.116989
0.106993
0.114998
0.139014
0.129993
0.088992
0.096021
0.095006
-0.154983
-0.630011
-0.765977
-0.149985
0.748016
1.078016
0.671012
0.083993
-0.210979
-0.216993
-0.123003
-0.031005
0.036003
0.080011
0.106993
0.114998
0.106993
0.118005
0.155024
0.175017
0.157990
0.142021
0.157015
0.178999
0.178024
0.157990
0.136007
0.116989
0.104027
0.095006
0.091999
0.096997
0.109025
0.118005
0.116989
0.106993
0.093990
0.086025
0.085009
0.090007
0.098988
0.118005
0.144012
0.144987
0.119021
0.108009
0.127026
0.137023
0.121012
0.110000
0.123003
0.136007
0.136007
0.137998
0.147994
0.154008
0.146003
0.139014
0.142021
0.142996
0.139014
0.142996
0.154008
0.144012
0.119021
0.108009
0.105002
0.082002
0.045999
0.023000
0.022024
0.041001
0.070990
0.088016
0.083018
0.075013
0.075013
0.091023
0.144012
0.228005
0.277011
0.242024
0.173026
0.149010
0.165020
0.152992
0.100004
0.077004
0.114023
0.152992
0.150026
0.151001
0.192002
0.228005
0.206997
0.152992
0.123003
0.121987
0.119996
0.106018
0.096997
0.098988
0.100004
0.096997
0.100004
0.109025
0.128001
0.142021
0.050022
-0.265999
-0.658984
-0.668981
-0.059003
0.737004
1.019014
0.633018
0.049006
-0.266975
-0.267990
-0.151001
-0.062985
-0.016010
0.024991
0.062010
0.080011
0.090007
0.113007
0.131009
0.123003
0.110000
0.118005
0.132024
0.129017
0.116989
0.109025
0.104027
0.108009
0.121012
0.128001
0.111991
0.088992
0.083018
0.087000
0.083018
0.073997
0.068024
0.072006
0.078995
0.083993
0.086025
0.091999
0.098013
0.091999
0.080986
0.088016
0.114998
0.128001
0.105002
0.078995
0.096997
0.141005
0.150026
0.111016
0.080011
0.096997
0.128001
0.129993
0.119021
0.134991
0.165020
0.164004
0.126010
0.101995
0.127026
0.173026
0.198992
0.192002
0.149010
0.085009
0.052013
0.086025
0.144987
0.157990
0.124994
0.100004
0.106018
0.124994
0.137023
0.137998
0.133000
0.124994
0.121987
0.126010
0.132024
0.129017
0.111991
0.093990
0.095006
0.111991
0.113007
0.086025
0.060018
0.052989
0.042017
0.019993
0.014019
0.034012
0.052989
0.047990
0.050997
0.106018
0.180015
0.201999
0.162989
0.119996
0.103011
0.087000
-0.034012
-0.369010
-0.719003
-0.568977
0.211020
0.948024
0.935020
0.323011
-0.200007
-0.300011
-0.177008
-0.091999
-0.080011
-0.057011
0.004998
0.063025
0.078995
0.075013
0.085009
0.104027
0.110000
0.106018
0.105002
0.101020
0.098013
0.124994
0.180990
0.223007
0.233003
0.234994
0.231987
0.190011
0.109025
0.050022
0.052989
0.085009
0.090007
0.064001
0.047015
0.057011
0.082002
0.110000
0.144012
0.167987
0.154008
0.105002
0.065992
0.065992
0.073022
0.052013
0.027023
0.049006
0.101995
0.121987
0.093014
0.064001
0.070990
0.096021
0.110000
0.110000
0.100004
0.088016
0.086025
0.105002
0.131009
0.137023
0.111991
0.070990
0.037019
0.021008
0.013003
0.011987
0.029989
0.064001
0.095006
0.111991
0.124994
0.137998
0.146003
0.151001
0.150026
0.136007
0.114023
0.098013
0.093014
0.098988
0.109025
0.114023
0.113007
0.111016
0.108009
0.100004
0.091023
0.086025
0.083018
0.077004
0.075013
0.083018
0.096021
0.098988
0.088992
0.082002
0.098988
0.124019
0.124994
0.098988
0.080986
0.040026
-0.174001
-0.576982
-0.766993
-0.289974
0.599006
1.057008
0.707990
0.060994
-0.272989
-0.243975
-0.123979
-0.059978
-0.026982
0.014994
0.042017
0.014994
-0.039985
-0.060994
-0.023000
0.067008
0.180015
0.254987
0.251005
0.201023
0.167011
0.152017
0.141005
0.147019
0.173026
0.183022
0.149010
0.096021
0.059003
0.041001
0.031005
0.027998
0.031005
0.036003
0.044008
0.050997
0.047015
0.041001
0.050997
0.070990
0.072006
0.055996
0.050997
0.062010
0.070990
0.072006
0.070015
0.064001
0.060018
0.068024
0.080011
0.080011
0.075013
0.077004
0.078995
0.078020
0.080986
0.088016
0.091999
0.091999
0.095006
0.101020
0.096021
0.070015
0.037994
0.016010
0.009021
0.016010
0.040026
0.072006
0.093990
0.104027
0.110000
0.118005
0.129993
0.139989
0.129993
0.103011
0.093014
0.116989
0.142021
0.137023
0.119021
0.113007
0.111991
0.104027
0.096021
0.100004
0.104027
0.093014
0.073997
0.070990
0.083018
0.086025
0.075988
0.068999
0.075013
0.078995
0.073997
0.073022
0.083993
0.073997
0.042017
0.060018
0.070990
-0.178999
-0.668005
-0.814008
-0.187979
0.724001
1.058024
0.651995
0.064001
-0.236010
-0.246982
-0.164980
-0.096997
-0.052013
-0.016986
0.013003
0.034987
0.047015
0.057987
0.080011
0.104027
0.106993
0.088992
0.077004
0.080011
0.085009
0.082002
0.073997
0.062010
0.049006
0.042992
0.045999
0.034012
-0.019993
-0.093990
-0.105977
-0.005973
0.128001
0.177008
0.137023
0.101020
0.106993
0.114023
0.091023
0.062010
0.055996
0.075988
0.098013
0.105002
0.101020
0.082002
0.057987
0.065017
0.113007
0.149010
0.134016
0.111016
0.127026
0.152992
0.150026
0.129993
0.121987
0.114998
0.096021
0.088016
0.098988
0.113007
0.114023
0.101995
0.075988
0.045999
0.039010
0.055996
0.073022
0.077004
0.083993
0.101995
0.121012
0.129993
0.144012
0.167011
0.180015
0.167987
0.147994
0.141005
0.139014
0.131009
0.114023
0.096021
0.088992
0.109025
0.141005
0.144987
0.124019
0.119021
0.129017
0.121012
0.095006
0.093014
0.118005
0.128001
0.111016
0.095006
0.088992
0.083018
0.088016
0.106993
0.109025
0.098013
0.109025
0.017026
-0.359014
-0.778005
-0.635985
0.174001
0.924008
0.948999
0.421023
-0.060994
-0.223982
-0.182006
-0.090983
-0.016986
0.019993
0.029989
0.042017
0.070015
0.100004
0.118005
0.118005
0.110000
0.111991
0.126010
0.134991
0.127026
0.098988
0.065992
0.075013
0.152017
0.237026
0.247998
0.206021
0.183997
0.169003
0.095006
-0.004998
-0.026982
0.027998
0.065992
0.060994
0.067008
0.085009
0.073997
0.040026
0.034987
0.085009
0.160997
0.203990
0.178999
0.113007
0.073997
0.091999
0.121987
0.123003
0.113007
0.116014
0.124019
0.121987
0.116014
0.111991
0.108009
0.105002
0.108009
0.114023
0.119996
0.118005
0.104027
0.077004
0.045024
0.019017
0.011012
0.036003
0.091023
0.139014
0.144987
0.123003
0.119021
0.146003
0.173026
0.172010
0.147994
0.128001
0.123003
0.123003
0.119996
0.119996
0.129017
0.137998
0.134016
0.126010
0.129017
0.129993
0.121012
0.119996
0.128001
0.119021
0.101020
0.108009
0.137023
0.146003
0.129017
0.113007
0.108009
0.114023
0.133000
0.137998
0.124019
0.142021
0.114023
-0.187004
-0.671012
-0.719003
0.027023
0.958995
1.180011
0.632002
-0.008005
-0.256003
-0.193993
-0.075988
-0.003007
0.039010
0.068999
0.085009
0.080986
0.078995
0.118005
0.201999
0.267990
0.257019
0.183997
0.116989
0.090007
0.090007
0.098013
0.111016
0.121987
0.114023
0.091999
0.078020
0.085009
0.093014
0.090007
0.083993
0.087000
0.091999
0.090007
0.086025
0.088992
0.091999
0.093990
0.103011
0.114023
0.116014
0.109025
0.106993
0.110000
0.104027
0.088016
0.078020
0.080011
0.070990
0.052013
0.059003
0.096997
0.104027
0.064001
0.062010
0.146003
0.233003
0.238002
0.188020
0.157015
0.157015
0.146003
0.095006
0.036003
0.016010
0.032996
0.050022
0.057987
0.073022
0.101995
0.141005
0.175992
0.183022
0.167987
0.172010
0.203990
0.215002
0.182006
0.149010
0.151001
0.160022
0.142021
0.114023
0.111991
0.134016
0.147019
0.147019
0.150026
0.152992
0.136007
0.108009
0.091023
0.098013
0.123003
0.150026
0.160022
0.151001
0.144987
0.146003
0.144987
0.155999
0.205006
0.270022
0.275996
0.123003
-0.239993
-0.655977
-0.727008
-0.190986
0.625988
1.032992
0.743018
0.147994
-0.220000
-0.241009
-0.126986
-0.049982
-0.021008
0.004023
0.039010
0.070990
0.080986
0.075013
0.083018
0.116989
0.147019
0.144987
0.129017
0.121987
0.121987
0.118005
0.114023
0.114023
0.114998
0.114023
0.110000
0.105002
0.101020
0.101020
0.101995
0.101020
0.098988
0.096021
0.096997
0.106993
0.114023
0.103011
0.083993
0.082002
0.096021
0.106018
0.108009
0.111016
0.110000
0.100004
0.093990
0.106018
0.132024
0.154008
0.152992
0.131009
0.111016
0.111016
0.121987
0.128001
0.136007
0.152992
0.160997
0.142021
0.119021
0.121012
0.137998
0.132024
0.096021
0.057011
0.034012
0.031005
0.054004
0.101020
0.139989
0.149010
0.141005
0.144012
0.170994
0.206997
0.221991
0.210004
0.192002
0.178024
0.162989
0.160997
0.178999
0.185013
0.157015
0.119996
0.101995
0.104027
0.121012
0.134016
0.124994
0.111016
0.114023
0.104027
0.070015
0.065017
0.111991
0.144012
0.124994
0.128001
0.197000
0.239993
0.175017
0.080986
0.086025
0.142996
0.008005
-0.417000
-0.738995
-0.402981
0.481001
1.085006
0.876993
0.231987
-0.208988
-0.285992
-0.203990
-0.113007
-0.037994
0.019993
0.060018
0.093014
0.116989
0.124019
0.119996
0.127026
0.139989
0.142996
0.139014
0.142021
0.142021
0.128001
0.116989
0.124994
0.129993
0.116014
0.104027
0.111991
0.119021
0.106018
0.096021
0.110000
0.124994
0.118005
0.104027
0.101995
0.101020
0.096021
0.091023
0.093014
0.101995
0.118005
0.136007
0.137998
0.124019
0.114023
0.121012
0.133000
0.132024
0.119996
0.114998
0.121987
0.134016
0.142996
0.144987
0.142996
0.147994
0.162989
0.165996
0.142021
0.123003
0.147019
0.188020
0.185988
0.129993
0.068999
0.039010
0.029989
0.034012
0.067008
0.128001
0.172010
0.165996
0.137998
0.139014
0.172010
0.198016
0.198016
0.185013
0.172010
0.159006
0.149010
0.147994
0.144987
0.129017
0.116014
0.126010
0.144987
0.146003
0.137023
0.142021
0.154008
0.149010
0.123003
0.101020
0.101995
0.128001
0.154008
0.147019
0.116989
0.114023
0.144012
0.151001
0.136007
0.150026
0.078995
-0.262992
-0.671012
-0.573000
0.178999
0.953997
1.065988
0.536022
-0.082977
-0.366003
-0.313990
-0.154008
-0.026982
0.067008
0.129993
0.134016
0.109025
0.124994
0.175017
0.185988
0.142021
0.110000
0.137998
0.178024
0.169003
0.142996
0.165020
0.210004
0.200007
0.142996
0.108009
0.116989
0.132024
0.136007
0.129993
0.119996
0.111016
0.106018
0.101020
0.096997
0.106993
0.126010
0.132024
0.116014
0.101020
0.101020
0.110000
0.116989
0.121987
0.127026
0.136007
0.144987
0.142996
0.132024
0.134016
0.147994
0.149010
0.137998
0.136007
0.144987
0.150026
0.151001
0.154008
0.160022
0.162989
0.160997
0.160997
0.164004
0.162013
0.147994
0.129017
0.106993
0.080986
0.063025
0.072006
0.104027
0.137023
0.160022
0.175017
0.187004
0.190986
0.195009
0.206997
0.215002
0.201999
0.169003
0.150026
0.159006
0.172010
0.164004
0.149010
0.146003
0.147994
0.146003
0.144012
0.139989
0.132024
0.129017
0.142996
0.157015
0.154008
0.142021
0.147019
0.160022
0.151001
0.119021
0.098988
0.114023
0.139989
0.150026
0.175992
0.206021
0.041001
-0.418992
-0.755981
-0.402981
0.492989
1.113003
0.965009
0.352024
-0.157990
-0.297004
-0.146003
0.040026
0.067008
-0.013979
-0.016010
0.104027
0.203990
0.193018
0.141005
0.126010
0.142021
0.159006
0.165020
0.155024
0.134016
0.121987
0.132024
0.152992
0.165996
0.164004
0.157015
0.147019
0.127026
0.100004
0.090007
0.101995
0.108009
0.098013
0.088992
0.088016
0.083993
0.080011
0.090007
0.114023
0.129993
0.124994
0.108009
0.093990
0.087000
0.088992
0.098988
0.111991
0.121987
0.131009
0.141005
0.144012
0.137023
0.131009
0.128001
0.123003
0.119021
0.132024
0.155999
0.167987
0.164004
0.155999
0.152017
0.146003
0.137023
0.132024
0.129993
0.118005
0.087000
0.054004
0.042017
0.055996
0.091023
0.133000
0.157015
0.151001
0.144987
0.165996
0.196025
0.201999
0.190011
0.187004
0.193993
0.188020
0.165020
0.150026
0.154008
0.154008
0.134991
0.123003
0.134991
0.147019
0.139014
0.128001
0.133000
0.147019
0.152992
0.139014
0.129017
0.157990
0.205006
0.198016
0.133000
0.105002
0.162989
0.220000
0.180015
0.101020
0.086025
0.022024
-0.293997
-0.645981
-0.463000
0.329025
0.996014
0.912996
0.324027
-0.141005
-0.239993
-0.149985
-0.072981
-0.031980
0.049006
0.162989
0.201023
0.142996
0.090007
0.096021
0.111991
0.106993
0.110000
0.129993
0.142996
0.134991
0.121987
0.121012
0.129017
0.131009
0.116989
0.096997
0.087000
0.091023
0.098013
0.100004
0.098988
0.100004
0.106018
0.111991
0.111991
0.103011
0.093990
0.090007
0.091023
0.100004
0.113007
0.119996
0.116989
0.114023
0.121012
0.127026
0.127026
0.132024
0.142996
0.141005
0.121012
0.113007
0.129993
0.146003
0.142996
0.139014
0.144987
0.146003
0.133000
0.121012
0.129993
0.152992
0.162989
0.152017
0.139989
0.137023
0.129993
0.106993
0.078995
0.063025
0.070015
0.098013
0.132024
0.150026
0.152017
0.154008
0.170994
0.190986
0.201023
0.192002
0.169003
0.152017
0.160997
0.185988
0.187004
0.155024
0.139989
0.165996
0.185988
0.165020
0.147994
0.165996
0.178024
0.164004
0.167987
0.193018
0.180990
0.128001
0.100004
0.111991
0.121987
0.124994
0.151001
0.182006
0.170018
0.129017
0.133000
0.175017
0.087000
-0.267990
-0.663982
-0.569993
0.183997
0.986018
1.096993
0.551016
-0.021984
-0.236986
-0.200983
-0.115973
-0.044008
0.014994
0.049006
0.068999
0.088992
0.101995
0.101995
0.106993
0.127026
0.144987
0.139989
0.121987
0.119021
0.134991
0.147019
0.139014
0.121987
0.111991
0.103011
0.090007
0.083018
0.088016
0.095006
0.096021
0.095006
0.091999
0.083993
0.083018
0.098988
0.116989
0.118005
0.106018
0.096997
0.096997
0.096021
0.093014
0.093990
0.091023
0.085009
0.093014
0.105002
0.078995
0.027023
0.027023
0.093990
0.147019
0.139014
0.127026
0.152017
0.170994
0.152017
0.129993
0.129993
0.134991
0.136007
0.144987
0.144987
0.118005
0.096997
0.111016
0.134016
0.128001
0.088992
0.049006
0.034012
0.045999
0.072006
0.106993
0.139989
0.155999
0.152017
0.150026
0.162013
0.178024
0.183022
0.170994
0.144012
0.121012
0.121012
0.134991
0.137998
0.132024
0.127026
0.128001
0.134991
0.141005
0.134016
0.111991
0.090007
0.083993
0.088016
0.095006
0.106993
0.119021
0.118005
0.111016
0.110000
0.110000
0.106993
0.116014
0.127026
0.110000
0.093990
0.104027
-0.004998
-0.395992
-0.786986
-0.579014
0.275996
1.008002
0.963993
0.366003
-0.136982
-0.264983
-0.182006
-0.091999
-0.037994
0.009996
0.052013
0.068024
0.060018
0.055996
0.077004
0.108009
0.123003
0.118005
0.106018
0.093990
0.077004
0.057987
0.052989
0.075013
0.101020
0.090007
0.036003
-0.000975
0.029989
0.086025
0.080011
0.006014
-0.052013
-0.031005
0.042992
0.111991
0.129993
0.098013
0.064001
0.075988
0.110000
0.119021
0.096997
0.078995
0.073022
0.063025
0.045999
0.032021
0.034012
0.067008
0.114023
0.132024
0.106993
0.086025
0.100004
0.121012
0.119021
0.106018
0.096997
0.093014
0.093014
0.098013
0.096021
0.080986
0.075013
0.088992
0.110000
0.121012
0.119021
0.103011
0.065992
0.018001
-0.011987
-0.008005
0.018001
0.055020
0.093990
0.116989
0.116014
0.116989
0.139014
0.155999
0.144987
0.129017
0.132024
0.137998
0.127026
0.109025
0.103011
0.110000
0.110000
0.095006
0.075988
0.068024
0.065992
0.063025
0.070015
0.091999
0.103011
0.091023
0.078020
0.085009
0.091023
0.073997
0.060018
0.065992
0.068999
0.052013
0.039010
0.045024
0.067008
0.080011
-0.034987
-0.400990
-0.791009
-0.650004
0.149010
0.909014
0.922017
0.343003
-0.167987
-0.307000
-0.231987
-0.142996
-0.091999
-0.067983
-0.046975
-0.008005
0.045024
0.075013
0.059003
0.016010
-0.013003
-0.008980
0.014019
0.034012
0.037994
0.032021
0.032021
0.052989
0.080011
0.078020
0.044008
0.019017
0.029989
0.044008
0.026007
-0.006989
-0.011987
0.014019
0.044008
0.057011
0.057987
0.050997
0.039010
0.032021
0.034987
0.040026
0.037019
0.037994
0.049006
0.054004
0.037019
0.014994
0.023000
0.055020
0.073997
0.065992
0.052013
0.057011
0.073022
0.082002
0.080011
0.068024
0.047990
0.034987
0.042992
0.055996
0.054004
0.049006
0.063025
0.078020
0.065017
0.042992
0.047015
0.059003
0.037994
-0.006989
-0.031005
-0.023975
-0.000975
0.032021
0.070990
0.093990
0.091023
0.083018
0.090007
0.106018
0.113007
0.111991
0.113007
0.108009
0.090007
0.065992
0.050022
0.042017
0.037994
0.039010
0.045999
0.047990
0.045999
0.055020
0.068024
0.065992
0.047990
0.042017
0.050022
0.044008
0.019993
0.014019
0.039010
0.054004
0.042992
0.032021
0.027998
0.011987
0.009021
-0.018001
-0.251005
-0.679993
-0.840990
-0.323986
0.528016
0.922992
0.579014
-0.024991
-0.348977
-0.323986
-0.187004
-0.095981
-0.052013
-0.023000
-0.006989
-0.001991
0.001991
0.004998
-0.001991
-0.005973
0.011012
0.032021
0.024991
0.006014
0.019017
0.062010
0.080986
0.052013
0.014994
0.006989
0.021008
0.027998
0.014994
-0.003982
-0.008980
0.004998
0.017026
0.011012
-0.000975
0.001991
0.017026
0.031005
0.037019
0.034012
0.027998
0.024016
0.022024
0.019993
0.019993
0.022024
0.027023
0.034012
0.036003
0.034012
0.044008
0.065992
0.078020
0.070990
0.064001
0.070015
0.073997
0.063025
0.047015
0.042017
0.052013
0.065992
0.072006
0.065992
0.065017
0.073022
0.060994
0.009996
-0.044983
-0.059003
-0.036978
-0.003982
0.031005
0.060018
0.070990
0.075988
0.088992
0.104027
0.114023
0.121987
0.123003
0.100004
0.065992
0.060018
0.082002
0.093990
0.073997
0.052989
0.055996
0.067008
0.059003
0.042017
0.042017
0.060018
0.068024
0.052013
0.031005
0.032021
0.055996
0.073022
0.067008
0.049006
0.045024
0.055020
0.065992
0.078995
0.096997
0.018001
-0.312974
-0.771991
-0.834001
-0.165996
0.755006
1.086022
0.633018
-0.027998
-0.371001
-0.374008
-0.254987
-0.141980
-0.072006
-0.045999
-0.031005
-0.000975
0.024991
0.027023
0.031005
0.055020
0.068999
0.054004
0.034012
0.032996
0.042992
0.055996
0.065017
0.057987
0.029989
0.011012
0.022024
0.031005
0.013003
-0.003982
0.009996
0.027023
0.018001
0.000000
-0.008005
-0.011012
0.001016
0.032021
0.045024
0.024016
0.014994
0.034012
0.047015
0.050997
0.070015
0.085009
0.059003
0.013003
0.001991
0.032021
0.065017
0.070015
0.057987
0.045024
0.037994
0.037994
0.050022
0.073022
0.083993
0.075013
0.062010
0.065017
0.080011
0.088016
0.073997
0.042017
0.000000
-0.039010
-0.059978
-0.050997
-0.013003
0.036003
0.070015
0.082002
0.080986
0.082002
0.096021
0.124994
0.147019
0.132024
0.091023
0.065017
0.060018
0.052989
0.045999
0.057011
0.073997
0.078020
0.064001
0.045999
0.039010
0.049006
0.062010
0.057011
0.037994
0.021008
0.019017
0.031005
0.039010
0.032021
0.023000
0.029014
0.047015
0.075988
0.073997
-0.113982
-0.579014
-0.976997
-0.714980
0.216018
1.004019
0.958020
0.308016
-0.256003
-0.421999
-0.336989
-0.208013
-0.116989
-0.067983
-0.041001
-0.021984
-0.013003
-0.014994
-0.011987
0.011987
0.047990
0.065017
0.055020
0.040026
0.032021
0.027998
0.031005
0.045024
0.050997
0.027998
-0.005973
-0.013979
0.006014
0.027023
0.034012
0.032021
0.027998
0.019993
0.006989
-0.008005
-0.013979
-0.003007
0.016010
0.021008
0.009996
0.004998
0.014994
0.027023
0.027023
0.024016
0.027023
0.032021
0.031005
0.029014
0.040026
0.057987
0.057987
0.042017
0.032996
0.040026
0.047015
0.050997
0.065992
0.078995
0.067008
0.045024
0.049006
0.060018
0.029989
-0.042992
-0.091999
-0.075988
-0.024991
0.011987
0.032021
0.059003
0.086025
0.088016
0.075988
0.087000
0.123003
0.137998
0.106993
0.060994
0.045999
0.068999
0.091999
0.078020
0.042992
0.027998
0.045999
0.068024
0.067008
0.045999
0.029989
0.034012
0.044008
0.039010
0.019993
0.014019
0.027023
0.039010
0.041001
0.044008
0.040026
0.029014
0.034987
-0.041001
-0.374983
-0.820998
-0.812992
-0.073997
0.812017
1.016007
0.474987
-0.157990
-0.413993
-0.377990
-0.289974
-0.215977
-0.142996
-0.083993
-0.034987
0.019017
0.045024
0.019017
-0.019993
-0.026007
-0.014994
0.001991
0.039010
0.068024
0.045024
-0.004998
-0.003007
0.052989
0.086025
0.055996
0.001991
-0.023975
-0.006989
0.026007
0.032996
0.006989
-0.016010
-0.018977
-0.029989
-0.064001
-0.103986
-0.123979
-0.106993
-0.057987
-0.003007
0.034012
0.057011
0.070990
0.077004
0.070990
0.045024
0.008005
0.004998
0.050022
0.073997
0.027998
-0.026982
-0.013003
0.047990
0.080011
0.060994
0.016010
-0.036978
-0.062985
-0.013003
0.083018
0.106018
0.006989
-0.103011
-0.121012
-0.083993
-0.059003
-0.031980
0.009021
0.019993
0.004998
0.018001
0.059003
0.072006
0.050997
0.032996
0.014994
-0.011987
-0.011012
0.034012
0.065992
0.045999
0.014994
0.016010
0.032996
0.032996
0.006014
-0.037994
-0.062985
-0.036978
0.026007
0.062010
0.032996
-0.018001
-0.021008
0.029989
0.060994
0.027998
-0.024991
-0.023000
0.001991
-0.146978
-0.586978
-0.970008
-0.704983
0.188995
0.894019
0.796007
0.193993
-0.270997
-0.397008
-0.356982
-0.293997
-0.215002
-0.123979
-0.054980
-0.031980
-0.037994
-0.064001
-0.100979
-0.091999
0.001991
0.091023
0.080011
0.006014
-0.039985
-0.044008
-0.031005
-0.016986
-0.016010
-0.031980
-0.046975
-0.042992
-0.019993
0.004023
-0.008005
-0.054980
-0.080986
-0.059003
-0.032996
-0.034987
-0.034012
-0.027998
-0.064001
-0.128001
-0.128977
-0.047990
0.024991
0.019993
-0.041976
-0.090007
-0.077979
-0.026982
0.008005
0.009996
0.001991
-0.029014
-0.082002
-0.095006
-0.054004
-0.039010
-0.068999
-0.080011
-0.047990
-0.016010
-0.008980
-0.018001
-0.023975
-0.023975
-0.052013
-0.128001
-0.200007
-0.192977
-0.103986
-0.008980
0.019993
-0.014994
-0.045999
-0.036003
-0.013979
-0.004998
0.014994
0.031005
-0.011987
-0.088992
-0.100004
-0.027998
0.027023
0.014019
-0.026007
-0.055996
-0.070990
-0.055996
-0.029989
-0.032996
-0.052013
-0.047990
-0.044983
-0.062985
-0.054980
-0.011012
-0.003007
-0.049006
-0.078995
-0.064976
-0.036978
0.006989
0.001991
-0.264983
-0.801980
-1.100975
-0.635985
0.334023
0.935020
0.692021
0.014019
-0.433011
-0.466007
-0.346986
-0.272989
-0.205006
-0.096997
-0.027998
-0.047990
-0.088992
-0.080986
-0.041001
-0.029014
-0.046975
-0.047990
-0.018977
0.000000
-0.011987
-0.029014
-0.034012
-0.037994
-0.041976
-0.034987
-0.029989
-0.041976
-0.054980
-0.046975
-0.036003
-0.041976
-0.055996
-0.067008
-0.077004
-0.077004
-0.052013
-0.021984
-0.024991
-0.067008
-0.110000
-0.103986
-0.054980
-0.026982
-0.052013
-0.072006
-0.044983
-0.019993
-0.046975
-0.090007
-0.095006
-0.075013
-0.065992
-0.067008
-0.067983
-0.070990
-0.067008
-0.054004
-0.039985
-0.026982
-0.014994
-0.027998
-0.087000
-0.157990
-0.192002
-0.167987
-0.105002
-0.054004
-0.050997
-0.067008
-0.057011
-0.024991
-0.005973
-0.005973
-0.016986
-0.024991
-0.016986
-0.005973
-0.023000
-0.054004
-0.054980
-0.023000
-0.008005
-0.031005
-0.050997
-0.041001
-0.029989
-0.044983
-0.062010
-0.052989
-0.031005
-0.034012
-0.055996
-0.062985
-0.044983
-0.036003
-0.049982
-0.054980
-0.041001
-0.049006
-0.069974
-0.067983
-0.177008
-0.597990
-1.070986
-0.934980
-0.062985
0.776014
0.858992
0.321020
-0.238002
-0.482992
-0.451012
-0.312974
-0.206997
-0.177008
-0.172985
-0.142996
-0.092974
-0.050997
-0.041001
-0.057987
-0.072981
-0.062985
-0.039985
-0.029014
-0.027998
-0.029014
-0.036003
-0.049006
-0.049982
-0.041976
-0.039985
-0.042992
-0.044008
-0.054004
-0.080986
-0.098988
-0.085985
-0.057987
-0.044008
-0.054004
-0.075988
-0.088992
-0.080986
-0.065992
-0.062985
-0.069974
-0.067983
-0.057011
-0.039985
-0.023975
-0.023975
-0.042992
-0.062010
-0.067008
-0.059003
-0.044008
-0.031005
-0.031980
-0.041976
-0.041976
-0.031005
-0.029014
-0.041001
-0.049982
-0.044008
-0.027998
-0.018977
-0.034012
-0.085009
-0.151001
-0.185013
-0.155999
-0.090983
-0.044983
-0.034987
-0.044008
-0.044983
-0.021984
0.018001
0.039010
0.016010
-0.023975
-0.041976
-0.041976
-0.052013
-0.069974
-0.065992
-0.041001
-0.023975
-0.036978
-0.073997
-0.103986
-0.088992
-0.026007
0.024991
0.006989
-0.047990
-0.064001
-0.036978
-0.031005
-0.052013
-0.052013
-0.023975
-0.016010
-0.045999
-0.059978
-0.021984
-0.073997
-0.438009
-0.955988
-0.993982
-0.239993
0.704008
0.975006
0.474012
-0.182981
-0.494005
-0.463000
-0.323986
-0.223007
-0.175992
-0.157990
-0.144012
-0.113007
-0.072006
-0.045999
-0.041001
-0.042992
-0.049982
-0.055996
-0.045999
-0.034012
-0.034012
-0.031980
-0.023000
-0.029014
-0.055996
-0.072006
-0.065992
-0.057011
-0.059003
-0.062985
-0.062985
-0.055996
-0.049982
-0.052013
-0.057987
-0.060994
-0.062985
-0.070990
-0.080986
-0.075013
-0.062010
-0.064976
-0.077004
-0.059978
-0.019993
-0.008980
-0.041001
-0.065992
-0.055996
-0.039985
-0.036978
-0.041976
-0.049982
-0.055996
-0.054980
-0.050997
-0.047990
-0.037994
-0.024991
-0.029989
-0.052013
-0.070990
-0.092974
-0.129993
-0.159006
-0.139014
-0.088992
-0.065992
-0.082002
-0.105977
-0.119996
-0.123003
-0.085009
0.003007
0.073022
0.064001
0.016010
-0.004998
-0.000975
-0.005973
-0.024991
-0.041001
-0.045999
-0.041976
-0.034987
-0.034987
-0.034012
-0.023000
-0.019993
-0.039010
-0.059003
-0.052989
-0.034012
-0.029014
-0.036003
-0.041976
-0.049006
-0.067983
-0.090983
-0.070990
-0.027998
-0.162989
-0.614976
-1.047987
-0.861999
-0.008980
0.787026
0.868013
0.339996
-0.228980
-0.484983
-0.461984
-0.333007
-0.213011
-0.142996
-0.123979
-0.126986
-0.116989
-0.088992
-0.064976
-0.052989
-0.034987
-0.016986
-0.019993
-0.036003
-0.036978
-0.031005
-0.041976
-0.062010
-0.062985
-0.057987
-0.062010
-0.059978
-0.046975
-0.050997
-0.073997
-0.078995
-0.057987
-0.045999
-0.052013
-0.052013
-0.050997
-0.060994
-0.067008
-0.054004
-0.036978
-0.039010
-0.052013
-0.044983
-0.016010
0.001016
-0.016986
-0.036978
-0.027998
-0.018001
-0.032996
-0.042992
-0.024991
-0.005973
-0.013979
-0.036003
-0.042992
-0.029989
-0.016986
-0.018001
-0.029989
-0.044008
-0.064001
-0.091999
-0.118005
-0.126986
-0.105977
-0.057011
-0.011012
-0.001991
-0.021984
-0.024991
0.013003
0.049006
0.042992
0.008005
-0.018001
-0.019993
-0.008005
0.001991
0.000000
-0.008980
-0.013003
-0.013003
-0.005973
0.009021
0.011987
-0.016010
-0.049006
-0.050997
-0.029989
-0.016986
-0.016010
-0.018001
-0.019993
-0.023000
-0.021008
-0.021984
-0.044983
-0.059978
-0.013003
-0.008980
-0.302002
-0.843997
-1.065013
-0.494005
0.485999
0.998005
0.696003
0.042992
-0.384004
-0.446989
-0.341012
-0.246007
-0.200983
-0.160997
-0.095981
-0.034012
-0.023000
-0.052989
-0.067983
-0.044008
-0.021008
-0.026982
-0.039985
-0.029989
-0.013979
-0.021984
-0.046975
-0.062985
-0.060994
-0.044983
-0.026007
-0.023000
-0.037994
-0.049006
-0.049982
-0.057011
-0.073997
-0.080986
-0.067008
-0.047990
-0.044008
-0.050997
-0.044983
-0.018001
0.001991
-0.011012
-0.034987
-0.031980
-0.016010
-0.021008
-0.044008
-0.050997
-0.037994
-0.023975
-0.013003
-0.003007
-0.001991
-0.013003
-0.021984
-0.021008
-0.011987
0.006014
0.024991
0.026007
0.004998
-0.016010
-0.031980
-0.064976
-0.116989
-0.144987
-0.113007
-0.041001
0.014019
0.019993
0.004998
0.006989
0.017026
0.014019
0.024016
0.080011
0.126010
0.080011
-0.024991
-0.072006
-0.016010
0.057011
0.057011
0.004998
-0.018001
0.004998
0.013003
-0.021008
-0.057011
-0.057987
-0.044008
-0.042992
-0.044008
-0.029989
-0.014994
-0.019993
-0.039985
-0.054980
-0.064976
-0.073997
-0.054004
-0.009996
-0.105977
-0.530007
-1.031977
-0.962002
-0.118980
0.771991
0.899993
0.343003
-0.220975
-0.412978
-0.362996
-0.285992
-0.231012
-0.167011
-0.101995
-0.072981
-0.077979
-0.075013
-0.045999
-0.023975
-0.034987
-0.057987
-0.060994
-0.039010
-0.019993
-0.021008
-0.034012
-0.029989
-0.011012
-0.008980
-0.029014
-0.036978
-0.027998
-0.031005
-0.042992
-0.036978
-0.029014
-0.042992
-0.060994
-0.055996
-0.041001
-0.042992
-0.057011
-0.062010
-0.042992
-0.016986
-0.011987
-0.031005
-0.050997
-0.044983
-0.016986
-0.000975
-0.008980
-0.011012
0.006989
0.014994
-0.008980
-0.029014
-0.023000
-0.008005
-0.001991
0.006014
0.006989
-0.016010
-0.041976
-0.036978
-0.023000
-0.037994
-0.065992
-0.065992
-0.044983
-0.029989
-0.018001
0.004023
0.024016
0.032021
0.032996
0.034987
0.037994
0.039010
0.042017
0.042017
0.031005
0.009021
-0.000975
0.017026
0.037994
0.027023
-0.000975
-0.003982
0.019993
0.029989
0.011987
-0.003007
0.003007
0.009021
-0.006989
-0.029989
-0.039985
-0.029014
-0.003007
0.023000
0.022024
-0.008980
-0.009996
0.029989
-0.082002
-0.533990
-1.014991
-0.875977
-0.023000
0.784019
0.853018
0.316021
-0.229996
-0.436993
-0.367994
-0.243000
-0.190011
-0.174001
-0.128001
-0.067983
-0.047990
-0.068999
-0.088992
-0.075988
-0.041976
-0.021984
-0.029989
-0.042992
-0.041001
-0.031005
-0.026982
-0.029014
-0.034987
-0.049006
-0.067008
-0.072981
-0.057011
-0.037994
-0.042992
-0.072006
-0.095981
-0.093990
-0.073997
-0.052989
-0.047990
-0.072981
-0.105977
-0.103011
-0.059978
-0.027998
-0.041976
-0.067008
-0.057987
-0.034012
-0.036978
-0.064976
-0.080986
-0.067008
-0.039985
-0.031980
-0.057011
-0.092974
-0.091999
-0.054004
-0.026007
-0.034012
-0.057011
-0.060994
-0.034987
-0.006989
-0.032996
-0.116989
-0.175992
-0.160997
-0.119996
-0.092974
-0.064976
-0.036003
-0.039010
-0.062985
-0.064976
-0.032996
-0.000975
0.009021
-0.003007
-0.023975
-0.036978
-0.046975
-0.068999
-0.082002
-0.052989
-0.009996
-0.008005
-0.031005
-0.034012
-0.026007
-0.031005
-0.031980
-0.021008
-0.021008
-0.029989
-0.029989
-0.027998
-0.044008
-0.064001
-0.069974
-0.073997
-0.088992
-0.068999
-0.013979
-0.100004
-0.497987
-0.957979
-0.894995
-0.129993
0.725992
0.921001
0.416025
-0.201999
-0.474987
-0.443007
-0.335973
-0.254987
-0.192002
-0.159982
-0.172985
-0.185013
-0.149010
-0.093990
-0.068999
-0.059003
-0.013979
0.045024
0.026007
-0.064001
-0.092974
-0.021984
0.029014
-0.006989
-0.054980
-0.064001
-0.072981
-0.082977
-0.065992
-0.045999
-0.060994
-0.085009
-0.068999
-0.027998
-0.016986
-0.041001
-0.049006
-0.018977
0.004998
-0.021008
-0.073997
-0.090983
-0.060994
-0.026982
-0.014994
-0.008980
-0.001991
-0.009996
-0.039985
-0.059978
-0.037994
0.011987
0.039010
0.014019
-0.032996
-0.054980
-0.039985
-0.016010
-0.013003
-0.029989
-0.034012
-0.008005
0.006014
-0.034987
-0.098988
-0.121012
-0.092974
-0.052989
-0.034987
-0.044983
-0.049006
-0.019993
0.023000
0.040026
0.032996
0.018001
-0.004998
-0.027998
-0.024991
0.004998
0.027023
0.014994
-0.013979
-0.027998
-0.016010
-0.000975
-0.006989
-0.026982
-0.041976
-0.041001
-0.029989
-0.021984
-0.026982
-0.037994
-0.044008
-0.044983
-0.045999
-0.039010
-0.034012
-0.046975
-0.044008
-0.039010
-0.228005
-0.699985
-1.016007
-0.627004
0.261001
0.815024
0.623022
0.073022
-0.310983
-0.399974
-0.330000
-0.229996
-0.167011
-0.151976
-0.142996
-0.103986
-0.054980
-0.039985
-0.059003
-0.077004
-0.072981
-0.052013
-0.026007
-0.001991
0.000000
-0.029989
-0.067983
-0.077004
-0.059003
-0.046975
-0.052013
-0.065992
-0.078995
-0.082002
-0.069974
-0.059003
-0.064001
-0.065992
-0.054980
-0.054004
-0.075013
-0.090007
-0.082977
-0.077979
-0.088992
-0.113007
-0.149010
-0.170994
-0.118980
-0.008980
0.060994
0.049006
0.017026
0.006989
-0.003982
-0.018977
-0.018001
-0.019993
-0.054980
-0.085009
-0.057987
0.001991
0.032996
0.022024
-0.006989
-0.047990
-0.100004
-0.136982
-0.126986
-0.072006
-0.008980
0.027023
0.021008
-0.001991
-0.006989
0.016010
0.042992
0.047990
0.032021
0.019993
0.022024
0.024016
0.006989
-0.011012
-0.003007
0.017026
0.014994
-0.005973
-0.013979
0.000000
0.009021
-0.003982
-0.023000
-0.026007
-0.011987
0.001016
0.004023
0.001991
-0.011987
-0.032996
-0.036978
-0.016010
0.006989
0.024991
-0.013003
-0.252996
-0.696978
-0.934980
-0.515013
0.344019
0.856025
0.615992
0.024991
-0.341012
-0.366978
-0.259985
-0.167011
-0.100004
-0.057011
-0.041001
-0.039985
-0.036978
-0.024991
-0.008980
0.004023
0.006989
0.009021
0.009996
0.001991
-0.008980
-0.006989
0.000000
-0.005973
-0.014994
-0.013979
-0.003982
0.003007
0.001991
-0.011987
-0.023975
-0.021984
-0.011987
-0.009996
-0.014994
-0.009996
0.004998
0.011987
-0.000975
-0.016986
-0.013003
0.001991
0.014019
0.027023
0.036003
0.019993
-0.004998
-0.008005
0.000000
-0.000975
0.006014
0.024016
0.034012
0.026007
0.003007
-0.021008
-0.016010
0.011987
0.011987
-0.016986
-0.024991
-0.016010
-0.027998
-0.044008
-0.026007
0.004998
0.006989
-0.003982
0.001991
0.019017
0.034012
0.052013
0.078020
0.093014
0.083018
0.065017
0.060994
0.057011
0.037994
0.018001
0.019017
0.031005
0.040026
0.050022
0.060018
0.054004
0.034012
0.021008
0.022024
0.023000
0.019993
0.024016
0.018001
-0.023000
-0.059978
-0.023000
0.050997
0.064001
0.032021
0.003007
-0.155999
-0.540004
-0.796982
-0.417976
0.444023
0.973990
0.707015
0.065017
-0.313990
-0.318988
-0.218984
-0.162013
-0.110000
-0.049982
-0.024991
-0.026007
-0.005973
0.034987
0.052013
0.032021
0.017026
0.042017
0.080986
0.085009
0.049006
0.027023
0.045999
0.068024
0.047990
0.001991
-0.019993
0.001991
0.039010
0.054004
0.040026
0.019017
0.014019
0.027023
0.039010
0.026007
-0.005973
-0.018001
0.013003
0.055020
0.063025
0.042992
0.029014
0.024991
0.011012
-0.006989
-0.004998
0.016010
0.031005
0.029989
0.027998
0.045024
0.068999
0.065992
0.045024
0.041001
0.050997
0.057011
0.078020
0.098988
0.055020
-0.037994
-0.080011
-0.049006
-0.011012
0.009021
0.024991
0.027023
0.011012
0.021008
0.080011
0.149010
0.177008
0.159006
0.124994
0.106993
0.100004
0.080986
0.052013
0.039010
0.050997
0.080986
0.121987
0.142996
0.104027
0.029989
0.014019
0.075988
0.128001
0.123003
0.101020
0.087000
0.060018
0.037019
0.055020
0.106018
0.137023
0.121012
0.093990
0.087000
0.011012
-0.279978
-0.676986
-0.724976
-0.151001
0.641999
0.943026
0.564019
-0.029014
-0.353975
-0.341012
-0.197000
-0.106993
-0.092974
-0.087976
-0.062010
-0.023975
0.052013
0.165996
0.236010
0.206997
0.137023
0.101995
0.101995
0.088992
0.042017
-0.003007
0.014994
0.083993
0.124019
0.101020
0.068999
0.063025
0.062010
0.060994
0.080011
0.098988
0.080011
0.050997
0.055996
0.080986
0.095006
0.106993
0.110000
0.080986
0.050997
0.062010
0.091023
0.095006
0.088992
0.106018
0.132024
0.141005
0.131009
0.113007
0.090007
0.068024
0.065992
0.100004
0.146003
0.164004
0.146003
0.126010
0.109025
0.078020
0.037994
0.014994
0.014019
0.023000
0.047990
0.093014
0.124994
0.110000
0.083993
0.106993
0.164004
0.185988
0.154008
0.121987
0.119021
0.121012
0.114998
0.111991
0.116014
0.114998
0.109025
0.103011
0.095006
0.091023
0.093014
0.096021
0.101995
0.111991
0.123003
0.121987
0.106018
0.082002
0.065992
0.078995
0.110000
0.116989
0.103011
0.109025
0.077004
-0.160997
-0.581980
-0.766993
-0.333982
0.464016
0.921001
0.692996
0.137023
-0.225973
-0.261976
-0.162989
-0.087000
-0.036003
0.023000
0.060018
0.036003
-0.014994
-0.009996
0.055996
0.109025
0.100004
0.075988
0.091999
0.132024
0.144987
0.118005
0.082002
0.070015
0.083993
0.093014
0.080011
0.068999
0.085009
0.105002
0.100004
0.082002
0.075013
0.082002
0.091023
0.093014
0.088992
0.091023
0.108009
0.124019
0.124019
0.110000
0.096997
0.096997
0.114023
0.136007
0.139014
0.127026
0.134016
0.162013
0.167987
0.141005
0.127026
0.147019
0.160997
0.142021
0.121987
0.136007
0.167011
0.165996
0.103011
0.009996
-0.052013
-0.052989
-0.001991
0.078995
0.142021
0.147994
0.131009
0.160997
0.231012
0.275020
0.261001
0.218009
0.183022
0.173026
0.182006
0.188020
0.180990
0.165996
0.162013
0.180990
0.198992
0.177008
0.129017
0.123003
0.165996
0.188020
0.173026
0.177008
0.201999
0.178999
0.114023
0.101020
0.164004
0.205006
0.160997
0.098988
0.116989
0.165996
0.032996
-0.359989
-0.661991
-0.398999
0.339996
0.889996
0.807019
0.320004
-0.083993
-0.190986
-0.108984
-0.019993
0.006014
0.024991
0.080986
0.136007
0.144987
0.137998
0.150026
0.167011
0.165020
0.159006
0.170994
0.188020
0.185013
0.165996
0.150026
0.137998
0.127026
0.121012
0.123003
0.127026
0.131009
0.129017
0.116989
0.114998
0.137023
0.152992
0.133000
0.109025
0.114023
0.119996
0.106993
0.106018
0.119996
0.113007
0.095006
0.103011
0.114998
0.096997
0.088016
0.133000
0.187004
0.182006
0.144012
0.142996
0.172010
0.175017
0.147019
0.127026
0.134991
0.149010
0.139989
0.111991
0.091999
0.088016
0.070990
0.034987
0.018001
0.050997
0.105002
0.142021
0.160997
0.165020
0.152017
0.142996
0.170994
0.214027
0.221016
0.190011
0.149010
0.111991
0.088992
0.101020
0.139989
0.173026
0.178999
0.167011
0.152017
0.136007
0.118005
0.106018
0.113007
0.136007
0.152017
0.147019
0.119996
0.078020
0.042992
0.049006
0.090007
0.106018
0.040026
-0.114998
-0.356007
-0.573975
-0.469014
0.114998
0.786010
0.934005
0.490997
-0.027998
-0.221991
-0.157990
-0.069974
-0.029989
0.004998
0.045024
0.073997
0.095006
0.128001
0.160022
0.165996
0.146003
0.124019
0.121012
0.137998
0.150026
0.137998
0.121987
0.129017
0.139989
0.123003
0.098988
0.101020
0.114023
0.111016
0.103011
0.103011
0.101020
0.093014
0.091999
0.104027
0.123003
0.134991
0.131009
0.114023
0.096021
0.088016
0.101020
0.136007
0.162989
0.150026
0.116989
0.111991
0.150026
0.187004
0.185988
0.160022
0.144987
0.155999
0.170994
0.174001
0.172010
0.178024
0.187004
0.180990
0.155999
0.116014
0.063025
0.014019
0.001991
0.045024
0.113007
0.159006
0.169003
0.165020
0.169003
0.183022
0.193018
0.195009
0.190011
0.183997
0.175992
0.167011
0.160022
0.160022
0.165020
0.174001
0.182006
0.185013
0.174001
0.152017
0.136007
0.142996
0.165020
0.175017
0.164004
0.151001
0.150026
0.150026
0.147994
0.152992
0.155024
0.152992
0.175017
0.147019
-0.113982
-0.556989
-0.709006
-0.202974
0.618024
1.017023
0.722010
0.150026
-0.182006
-0.174976
-0.046975
0.011012
0.001991
0.011012
0.063025
0.104027
0.110000
0.114023
0.131009
0.139014
0.129993
0.123003
0.129993
0.146003
0.155999
0.141005
0.111016
0.096997
0.114023
0.137998
0.146003
0.133000
0.111991
0.098988
0.100004
0.101995
0.093990
0.088992
0.098013
0.114023
0.124994
0.129993
0.129993
0.119996
0.103011
0.093990
0.098988
0.109025
0.110000
0.091999
0.029989
-0.072981
-0.124994
-0.029014
0.165020
0.285992
0.264008
0.196025
0.175017
0.182006
0.164004
0.121987
0.077004
0.045024
0.032021
0.037019
0.050022
0.073022
0.110000
0.139989
0.141005
0.124994
0.126010
0.152992
0.190011
0.208013
0.192002
0.164004
0.152017
0.147994
0.132024
0.129993
0.157990
0.177008
0.157015
0.126010
0.118005
0.124994
0.134016
0.147019
0.147994
0.116989
0.080986
0.090007
0.131009
0.139989
0.106018
0.088992
0.119996
0.152017
0.146003
0.118005
0.110000
0.119996
0.045999
-0.252996
-0.645006
-0.660000
-0.059978
0.681009
0.886014
0.492989
0.009021
-0.195985
-0.167011
-0.080986
-0.008005
0.050997
0.082002
0.080011
0.068024
0.073997
0.098988
0.118005
0.124019
0.134991
0.155024
0.157015
0.127026
0.101020
0.101020
0.106993
0.100004
0.091999
0.096021
0.103011
0.106018
0.109025
0.111991
0.109025
0.104027
0.098988
0.088016
0.072006
0.062010
0.060994
0.068999
0.095006
0.121012
0.113007
0.073997
0.050997
0.059003
0.065992
0.064001
0.080986
0.096997
0.050022
-0.041976
-0.062985
0.050997
0.205006
0.267990
0.228005
0.174001
0.160022
0.154008
0.111991
0.050997
0.013003
0.009021
0.009021
0.009021
0.034012
0.086025
0.133000
0.155024
0.174001
0.203014
0.216018
0.198016
0.172010
0.162989
0.162013
0.146003
0.123003
0.116989
0.132024
0.146003
0.150026
0.150026
0.144012
0.127026
0.104027
0.088992
0.096021
0.129017
0.157990
0.142996
0.096021
0.067008
0.070990
0.088992
0.109025
0.124994
0.129017
0.096021
-0.041976
-0.333982
-0.632978
-0.584012
-0.036003
0.635009
0.856025
0.515013
0.024016
-0.223982
-0.210004
-0.116989
-0.054004
-0.005973
0.044008
0.080011
0.095006
0.111016
0.134016
0.131009
0.096021
0.075988
0.101020
0.118005
0.086025
0.050997
0.072006
0.114023
0.119996
0.101020
0.098988
0.111016
0.105002
0.075013
0.042017
0.032021
0.055996
0.091999
0.106018
0.091023
0.080011
0.085009
0.085009
0.070990
0.067008
0.087000
0.114023
0.123003
0.110000
0.093014
0.096021
0.110000
0.119021
0.132024
0.147019
0.129017
0.078020
0.059003
0.109025
0.164004
0.150026
0.087000
0.060994
0.083993
0.083993
0.027023
-0.011012
0.032021
0.091999
0.087000
0.052013
0.072006
0.134991
0.160022
0.129993
0.100004
0.093990
0.095006
0.104027
0.132024
0.150026
0.121987
0.065992
0.034012
0.050022
0.078995
0.068999
0.009021
-0.052989
-0.055996
0.009021
0.095006
0.150026
0.157990
0.132024
0.101995
0.106018
0.132024
0.134016
0.100004
0.060994
0.052013
0.062010
-0.006989
-0.269982
-0.614976
-0.663007
-0.183997
0.515013
0.850011
0.584012
0.039010
-0.321995
-0.353000
-0.225973
-0.124994
-0.072006
-0.026982
0.011012
0.024016
0.017026
0.014019
0.034012
0.065992
0.073997
0.045999
0.017026
0.018001
0.039010
0.050022
0.044008
0.034012
0.027023
0.029989
0.037019
0.029014
0.001991
-0.019993
-0.024991
-0.021984
-0.018977
-0.021008
-0.029989
-0.026007
0.008005
0.045024
0.040026
-0.001991
-0.029989
-0.009996
0.034012
0.049006
0.024991
0.011012
0.027023
0.034012
0.019017
0.013003
0.024016
0.029989
0.029014
0.029014
0.029014
0.034012
0.049006
0.055020
0.034987
0.001016
-0.034987
-0.072006
-0.095006
-0.075988
-0.013979
0.041001
0.047990
0.029014
0.029014
0.052013
0.073022
0.085009
0.091999
0.083993
0.064001
0.052013
0.050022
0.044008
0.042017
0.052013
0.057011
0.049006
0.049006
0.060018
0.064001
0.050022
0.034012
0.031005
0.036003
0.044008
0.054004
0.055996
0.039010
0.016010
0.001016
-0.008980
0.001016
0.047015
-0.001991
-0.339996
-0.804987
-0.832985
-0.164980
0.674019
0.935020
0.494005
-0.134991
-0.463975
-0.443007
-0.295013
-0.178999
-0.098013
-0.029989
0.006014
0.001016
-0.019993
-0.029014
-0.021984
-0.013979
-0.018977
-0.023000
-0.004998
0.022024
0.026007
0.001991
-0.016010
-0.011987
-0.000975
-0.003982
-0.019993
-0.031005
-0.029014
-0.027998
-0.032996
-0.032996
-0.018977
-0.003982
-0.004998
-0.016986
-0.016010
0.000000
0.006014
-0.008005
-0.016010
-0.001991
0.014019
0.009021
-0.003982
0.001016
0.011987
0.006989
-0.006989
-0.003982
0.014019
0.027023
0.034987
0.047015
0.054004
0.049006
0.037019
0.027023
0.009996
-0.021008
-0.052013
-0.067008
-0.059978
-0.029989
0.016010
0.047015
0.042992
0.027998
0.040026
0.059003
0.050022
0.034012
0.044008
0.060018
0.049006
0.024016
0.014019
0.019017
0.023000
0.019993
0.014994
0.018001
0.019993
0.004998
-0.013003
-0.005973
0.019993
0.034987
0.034012
0.034012
0.029989
0.014994
0.009021
0.017026
0.018001
0.011012
0.024016
-0.042992
-0.371976
-0.825996
-0.842006
-0.134991
0.728999
0.955988
0.487015
-0.101995
-0.387012
-0.384980
-0.272013
-0.169003
-0.115973
-0.092974
-0.069974
-0.045999
-0.023000
-0.004998
0.001016
-0.001991
0.001991
0.013003
0.009996
-0.008980
-0.016010
-0.003007
-0.008005
-0.050997
-0.100979
-0.110975
-0.080986
-0.044008
-0.023000
-0.023975
-0.042992
-0.067008
-0.070990
-0.047990
-0.018001
-0.003007
0.001016
-0.000975
-0.014994
-0.031980
-0.021984
0.006014
0.009996
-0.013003
-0.026007
-0.029014
-0.046975
-0.041976
0.022024
0.078020
0.054004
-0.008980
-0.026982
0.001991
0.034012
0.050022
0.047015
0.026007
-0.000975
-0.024991
-0.052013
-0.082977
-0.087000
-0.041976
0.027998
0.068024
0.055020
0.021008
0.014019
0.041001
0.065017
0.060018
0.036003
0.017026
0.017026
0.034012
0.052989
0.062010
0.052989
0.031005
0.011012
0.003007
0.001991
0.003007
0.004998
0.009021
0.011987
0.009021
0.004023
0.004023
0.004998
0.003007
0.006014
0.011012
-0.001991
-0.016010
-0.011012
-0.103011
-0.443007
-0.847004
-0.801980
-0.123979
0.664998
0.891012
0.472021
-0.103011
-0.384980
-0.351009
-0.228005
-0.157990
-0.121012
-0.085009
-0.065992
-0.062985
-0.050997
-0.036978
-0.034012
-0.023975
0.004023
0.019993
0.003007
-0.024991
-0.031980
-0.026007
-0.026007
-0.034012
-0.039985
-0.042992
-0.050997
-0.060994
-0.064976
-0.064001
-0.064001
-0.067008
-0.072006
-0.080986
-0.083993
-0.067983
-0.046975
-0.047990
-0.067008
-0.073997
-0.060994
-0.052013
-0.054980
-0.044983
-0.023975
-0.016986
-0.029989
-0.041001
-0.041976
-0.039985
-0.027998
-0.008980
-0.000975
-0.008005
-0.018977
-0.034987
-0.052989
-0.055996
-0.046975
-0.057011
-0.098988
-0.133975
-0.114998
-0.054980
-0.006989
0.000000
-0.008980
-0.003982
0.013003
0.022024
0.024016
0.026007
0.023000
0.006989
-0.013003
-0.016986
-0.008005
-0.004998
-0.011987
-0.008980
0.000000
-0.004998
-0.009996
0.003007
0.013003
-0.004998
-0.027998
-0.024991
-0.016010
-0.027998
-0.047990
-0.052989
-0.047990
-0.041976
-0.052989
-0.093990
-0.114998
-0.080986
-0.136982
-0.476978
-0.893003
-0.793975
0.011987
0.865006
0.994998
0.428013
-0.192977
-0.444998
-0.407979
-0.310007
-0.243000
-0.178999
-0.103011
-0.046975
-0.042992
-0.072006
-0.075988
-0.036003
0.006014
0.019993
0.013003
-0.001991
-0.029014
-0.050997
-0.042992
-0.013979
0.004023
0.003007
-0.005973
-0.019993
-0.037994
-0.050997
-0.049982
-0.049982
-0.062010
-0.072981
-0.068999
-0.057987
-0.052013
-0.054004
-0.052989
-0.049006
-0.044983
-0.044983
-0.041001
-0.032996
-0.029014
-0.029989
-0.023975
-0.005973
0.009021
0.003007
-0.013979
-0.026982
-0.026982
-0.018977
-0.011012
-0.009996
-0.011987
-0.003007
0.011012
0.004998
-0.039010
-0.110000
-0.159982
-0.134991
-0.045999
0.023000
0.019017
-0.018977
-0.016986
0.022024
0.045999
0.042017
0.034012
0.029014
0.011012
-0.013003
-0.019993
-0.011012
-0.003007
-0.006989
-0.014994
-0.018001
-0.018001
-0.021008
-0.019993
-0.013979
-0.016010
-0.029989
-0.041001
-0.039985
-0.039010
-0.044983
-0.034987
-0.003982
0.013003
-0.018001
-0.057011
-0.045999
-0.088992
-0.397983
-0.883007
-0.999996
-0.359989
0.610994
1.045996
0.643015
-0.075988
-0.492013
-0.502010
-0.369985
-0.289974
-0.251005
-0.195985
-0.136982
-0.103011
-0.077004
-0.052989
-0.047990
-0.045999
-0.006989
0.041001
0.029989
-0.036003
-0.080011
-0.069974
-0.054004
-0.065992
-0.072981
-0.045999
-0.019993
-0.036978
-0.067008
-0.068999
-0.057011
-0.064001
-0.078995
-0.083993
-0.082977
-0.078995
-0.067983
-0.059003
-0.057011
-0.047990
-0.031005
-0.031005
-0.046975
-0.046975
-0.023975
-0.008980
-0.021984
-0.039010
-0.044008
-0.044008
-0.042992
-0.034987
-0.024991
-0.036003
-0.077979
-0.113982
-0.103986
-0.060994
-0.041976
-0.067983
-0.110000
-0.126010
-0.105002
-0.057987
-0.016010
-0.003982
-0.013003
-0.013003
0.004023
0.019017
0.024991
0.029014
0.026007
0.008005
-0.008980
-0.008005
0.000000
-0.001991
-0.009996
-0.009996
-0.003982
-0.008005
-0.023000
-0.032996
-0.026982
-0.016986
-0.011987
-0.009996
-0.008980
-0.014994
-0.024991
-0.027998
-0.027998
-0.036003
-0.045999
-0.032996
-0.032996
-0.229996
-0.724001
-1.114995
-0.768009
0.241009
0.994998
0.857000
0.180990
-0.334998
-0.464991
-0.384980
-0.277987
-0.203990
-0.159982
-0.126010
-0.090983
-0.069974
-0.077004
-0.095006
-0.090983
-0.059978
-0.034987
-0.031005
-0.034987
-0.036003
-0.041976
-0.052013
-0.052013
-0.039985
-0.036978
-0.055996
-0.082977
-0.090007
-0.073997
-0.059003
-0.057011
-0.054980
-0.052013
-0.064001
-0.085009
-0.091999
-0.077979
-0.062010
-0.057987
-0.062985
-0.068999
-0.073997
-0.073997
-0.064976
-0.052989
-0.052989
-0.064976
-0.073997
-0.067008
-0.044983
-0.029014
-0.029989
-0.044008
-0.054004
-0.047990
-0.031980
-0.031005
-0.064001
-0.116989
-0.159006
-0.167011
-0.141980
-0.101995
-0.068999
-0.052013
-0.046975
-0.045999
-0.039010
-0.013003
0.019017
0.024991
0.001016
-0.031005
-0.054004
-0.057987
-0.039010
-0.013979
-0.014994
-0.049006
-0.077004
-0.069974
-0.047990
-0.050997
-0.078995
-0.098988
-0.095981
-0.095006
-0.108984
-0.110000
-0.085009
-0.059978
-0.054004
-0.050997
-0.050997
-0.050997
-0.019993
-0.049982
-0.359014
-0.853993
-0.955013
-0.285992
0.661991
1.031001
0.610019
-0.062010
-0.453979
-0.495996
-0.382013
-0.259985
-0.177008
-0.136007
-0.121987
-0.110975
-0.092974
-0.072981
-0.057987
-0.054004
-0.059978
-0.059978
-0.045999
-0.036978
-0.049982
-0.067008
-0.059978
-0.046975
-0.060994
-0.085985
-0.085009
-0.065992
-0.060994
-0.067983
-0.065992
-0.057987
-0.057987
-0.057987
-0.054980
-0.060994
-0.069974
-0.067008
-0.062985
-0.068999
-0.065992
-0.044983
-0.027998
-0.029014
-0.034987
-0.036978
-0.032996
-0.024991
-0.016986
-0.016986
-0.018977
-0.016010
-0.019993
-0.029989
-0.031005
-0.019993
-0.014994
-0.024991
-0.041976
-0.064976
-0.098988
-0.128977
-0.128001
-0.093990
-0.049982
-0.019993
-0.013979
-0.023975
-0.023975
0.001991
0.037994
0.047015
0.022024
-0.008980
-0.018977
-0.014994
-0.016010
-0.016986
-0.013979
-0.018977
-0.034012
-0.037994
-0.029014
-0.027998
-0.037994
-0.034012
-0.023975
-0.034987
-0.052989
-0.039985
-0.016986
-0.037994
-0.083993
-0.087000
-0.054980
-0.055996
-0.091999
-0.119996
-0.251980
-0.642974
-1.037991
-0.809010
0.157990
1.032017
1.008002
0.302002
-0.305985
-0.477994
-0.412978
-0.323986
-0.241009
-0.159982
-0.113007
-0.105977
-0.100004
-0.077979
-0.054980
-0.044008
-0.029989
-0.016010
-0.023000
-0.039010
-0.044983
-0.042992
-0.045999
-0.049982
-0.047990
-0.049006
-0.057987
-0.062985
-0.059978
-0.059978
-0.068999
-0.070990
-0.060994
-0.049006
-0.045999
-0.049006
-0.057987
-0.069974
-0.077004
-0.064001
-0.034012
-0.014994
-0.026982
-0.052013
-0.065992
-0.059978
-0.037994
-0.008005
0.006989
-0.009996
-0.036978
-0.034987
-0.008980
0.004998
-0.008005
-0.026982
-0.036003
-0.041001
-0.049982
-0.059003
-0.067008
-0.085009
-0.110000
-0.111991
-0.068999
-0.011987
0.008005
-0.006989
-0.008005
0.013003
0.027023
0.019017
0.009021
0.009996
0.018001
0.019017
-0.001991
-0.031980
-0.039010
-0.021984
-0.006989
0.001991
0.013003
0.016010
0.001016
-0.016986
-0.023000
-0.026007
-0.027998
-0.021984
-0.008980
-0.013003
-0.026982
-0.031980
-0.031980
-0.036003
-0.029014
-0.098988
-0.440975
-0.930998
-0.944976
-0.152992
0.804987
1.037015
0.508024
-0.113982
-0.397008
-0.405013
-0.321995
-0.226989
-0.149010
-0.113982
-0.113007
-0.110975
-0.103011
-0.118980
-0.159982
-0.174001
-0.123003
-0.034012
0.045024
0.085009
0.085009
0.060994
0.024991
-0.026982
-0.080011
-0.092974
-0.055996
-0.026007
-0.054004
-0.098988
-0.100979
-0.069974
-0.054980
-0.062985
-0.067008
-0.055996
-0.036978
-0.023975
-0.029989
-0.049006
-0.062985
-0.059978
-0.039010
-0.009996
0.009021
0.006014
-0.008980
-0.013003
0.001016
0.006989
-0.003007
-0.013979
-0.011987
-0.001991
0.003007
0.001991
0.001016
-0.005973
-0.036978
-0.088992
-0.128001
-0.121012
-0.078995
-0.029989
0.001016
0.006014
0.003007
0.018001
0.044008
0.055020
0.045024
0.027023
0.013003
0.014019
0.027998
0.034012
0.027998
0.023000
0.027023
0.027023
0.023000
0.031005
0.040026
0.029989
0.006014
-0.003007
0.004998
0.006014
-0.003007
-0.005973
-0.001991
0.000000
0.003007
0.001991
-0.008980
0.000000
-0.006989
-0.228980
-0.712989
-1.008977
-0.594008
0.341012
0.985002
0.858992
0.249989
-0.277011
-0.453003
-0.366003
-0.220975
-0.139989
-0.111991
-0.080986
-0.047990
-0.036978
-0.037994
-0.031005
-0.019993
-0.016986
-0.018977
-0.023000
-0.023000
-0.006989
0.011987
0.006989
-0.018001
-0.034012
-0.027998
-0.026007
-0.039985
-0.050997
-0.042992
-0.036978
-0.049006
-0.062985
-0.054004
-0.044008
-0.068999
-0.111991
-0.115973
-0.080011
-0.049982
-0.041001
-0.052989
-0.103011
-0.141980
-0.073997
0.063025
0.114023
0.049006
0.000000
0.022024
0.037994
0.006989
-0.021984
-0.019993
-0.021984
-0.044008
-0.052989
-0.034012
-0.021008
-0.049006
-0.095981
-0.105002
-0.067008
-0.031005
-0.026982
-0.023975
0.001991
0.029989
0.037994
0.050022
0.078020
0.091023
0.068024
0.031005
0.013003
0.013003
0.014019
0.014994
0.019993
0.024016
0.023000
0.019993
0.019993
0.024016
0.024991
0.019017
0.011012
0.006989
0.009021
0.009021
0.003007
0.003007
0.014994
0.027023
0.026007
0.011012
-0.016010
-0.123979
-0.430979
-0.848995
-0.914987
-0.287983
0.623022
1.006010
0.625988
-0.006989
-0.367994
-0.385996
-0.262992
-0.169003
-0.136982
-0.110975
-0.062985
-0.016986
0.009021
0.013003
-0.000975
-0.013003
-0.001991
0.016010
0.011012
-0.006989
-0.006989
0.013003
0.026007
0.018001
0.000000
-0.016010
-0.032996
-0.047990
-0.045999
-0.026982
-0.013003
-0.014994
-0.019993
-0.013003
0.001016
-0.003007
-0.029014
-0.049982
-0.032996
0.011012
0.027023
-0.003982
-0.036003
-0.031005
-0.006989
0.000000
-0.005973
-0.008005
-0.001991
0.001991
0.003007
-0.001991
-0.011987
-0.016010
-0.009996
-0.006989
-0.019993
-0.049006
-0.083993
-0.110975
-0.108984
-0.070990
-0.021008
0.011012
0.022024
0.027998
0.037994
0.045999
0.047990
0.042992
0.032996
0.019993
0.011012
0.003007
-0.003982
-0.003007
0.009021
0.016010
0.008005
-0.003007
0.003007
0.022024
0.032996
0.024016
0.008005
-0.000975
-0.003982
-0.008005
-0.008980
-0.001991
0.009021
0.013003
-0.004998
-0.026007
-0.006989
-0.067008
-0.448005
-0.985977
-0.962978
-0.064001
0.945017
1.114995
0.490022
-0.177983
-0.448980
-0.417976
-0.295013
-0.193993
-0.160997
-0.162989
-0.126986
-0.059978
-0.023975
-0.023975
-0.018977
-0.001991
0.004998
0.004023
0.008005
0.011987
0.004023
-0.019993
-0.032996
-0.014994
-0.000975
-0.036003
-0.087000
-0.083993
-0.036003
-0.014994
-0.031005
-0.039010
-0.034012
-0.046975
-0.052013
-0.016986
0.016010
-0.000975
-0.037994
-0.039010
-0.018001
-0.013003
-0.018977
-0.013003
-0.001991
0.001991
0.003007
0.006014
0.003007
-0.003982
-0.005973
-0.001991
0.003007
0.006989
0.004998
-0.001991
-0.011987
-0.021984
-0.037994
-0.067983
-0.101995
-0.111991
-0.082002
-0.024991
0.014994
0.019017
0.016010
0.034987
0.055996
0.047990
0.023000
0.016010
0.023000
0.024016
0.014019
0.008005
0.009996
0.019993
0.027998
0.019017
-0.005973
-0.019993
-0.003982
0.016010
0.016010
0.001991
-0.009996
-0.014994
-0.018001
-0.023975
-0.026007
-0.004998
0.017026
-0.005973
-0.045999
-0.044008
-0.151976
-0.614001
-1.137994
-0.950990
0.083018
1.021005
1.017023
0.328009
-0.269006
-0.453003
-0.392010
-0.290990
-0.211995
-0.149985
-0.105002
-0.080011
-0.072006
-0.068999
-0.059003
-0.037994
-0.021008
-0.021008
-0.029014
-0.026007
-0.013979
-0.013003
-0.023975
-0.034012
-0.037994
-0.039010
-0.039010
-0.041976
-0.049982
-0.059003
-0.065992
-0.067008
-0.060994
-0.052989
-0.055996
-0.064976
-0.067983
-0.064976
-0.062010
-0.057987
-0.045999
-0.031005
-0.031005
-0.052013
-0.067983
-0.054980
-0.023000
-0.005973
-0.011987
-0.024991
-0.032996
-0.034012
-0.026982
-0.018977
-0.018001
-0.023000
-0.027998
-0.036003
-0.055996
-0.085009
-0.110000
-0.118005
-0.098013
-0.054980
-0.016010
0.001991
0.011987
0.029014
0.042992
0.045024
0.037019
0.032021
0.032021
0.031005
0.017026
-0.008980
-0.027998
-0.026007
-0.008980
0.001016
-0.000975
-0.009996
-0.018001
-0.019993
-0.018001
-0.011012
-0.001991
0.001016
-0.000975
-0.001991
-0.001991
-0.003982
-0.005973
-0.008005
-0.027998
-0.044008
-0.008005
-0.052989
-0.435002
-0.981995
-0.994998
-0.141980
0.888005
1.160994
0.605996
-0.095981
-0.428988
-0.418992
-0.307976
-0.226989
-0.175992
-0.131984
-0.090007
-0.052013
-0.023000
-0.013003
-0.018001
-0.018977
-0.004998
0.003007
-0.008980
-0.021984
-0.013979
0.009021
0.014994
0.001016
-0.008980
-0.004998
-0.003982
-0.018001
-0.034012
-0.037994
-0.034012
-0.031980
-0.037994
-0.049006
-0.059003
-0.059978
-0.049982
-0.034012
-0.021008
-0.016986
-0.021984
-0.026982
-0.023975
-0.013979
-0.011012
-0.019993
-0.023000
-0.011987
0.001991
0.004998
0.004998
0.004998
-0.000975
-0.006989
-0.000975
0.006014
-0.011012
-0.047990
-0.078995
-0.096997
-0.103011
-0.085009
-0.039985
0.000000
0.009996
0.009021
0.026007
0.047990
0.052989
0.050997
0.045999
0.027023
0.000000
0.001991
0.027023
0.034012
0.017026
0.003007
-0.000975
-0.006989
-0.013003
-0.004998
0.004023
0.001991
-0.001991
-0.005973
-0.016986
-0.029989
-0.027998
-0.013979
-0.008005
-0.009996
-0.004998
0.006989
-0.001991
-0.031005
-0.031005
-0.077004
-0.405988
-0.930998
-0.975981
-0.121012
0.947008
1.188992
0.544027
-0.187004
-0.466007
-0.407004
-0.284976
-0.203990
-0.152992
-0.123979
-0.106993
-0.085985
-0.057987
-0.032996
-0.018001
-0.008980
-0.001991
-0.001991
-0.008005
-0.011012
-0.006989
-0.001991
-0.006989
-0.027998
-0.052013
-0.064976
-0.059003
-0.039010
-0.023000
-0.021984
-0.031005
-0.039985
-0.057011
-0.085985
-0.100979
-0.080011
-0.046975
-0.042992
-0.054004
-0.054980
-0.055996
-0.073997
-0.080011
-0.059978
-0.049006
-0.059978
-0.057987
-0.041001
-0.052013
-0.090983
-0.101995
-0.075013
-0.059003
-0.069974
-0.055996
-0.004998
0.019993
-0.031005
-0.113007
-0.156975
-0.155999
-0.133000
-0.082977
-0.008980
0.029014
-0.008980
-0.067008
-0.068999
-0.019993
0.023000
0.027023
-0.008980
-0.057011
-0.069974
-0.034987
-0.005973
-0.021008
-0.047990
-0.052013
-0.044983
-0.041976
-0.039010
-0.034987
-0.034987
-0.032996
-0.034987
-0.064976
-0.110000
-0.110975
-0.064001
-0.034012
-0.059978
-0.096997
-0.100004
-0.092974
-0.105002
-0.095981
-0.105977
-0.379982
-0.934980
-1.139985
-0.438984
0.645006
1.047987
0.549025
-0.156975
-0.489982
-0.444998
-0.315006
-0.318013
-0.395992
-0.361980
-0.218009
-0.128001
-0.128001
-0.128001
-0.093990
-0.068999
-0.082002
-0.119996
-0.136007
-0.106993
-0.072981
-0.080986
-0.121012
-0.151001
-0.142996
-0.110000
-0.100979
-0.142996
-0.200007
-0.216993
-0.192977
-0.167987
-0.164004
-0.164004
-0.147994
-0.129993
-0.136007
-0.151001
-0.137998
-0.101995
-0.090007
-0.113982
-0.136007
-0.139014
-0.129993
-0.105002
-0.072006
-0.070990
-0.103011
-0.111991
-0.085985
-0.075013
-0.090983
-0.090007
-0.065992
-0.057011
-0.077004
-0.103011
-0.118005
-0.133975
-0.167011
-0.193993
-0.175992
-0.118980
-0.083993
-0.095006
-0.100004
-0.059003
-0.008980
-0.003007
-0.026982
-0.039985
-0.034012
-0.026982
-0.036003
-0.060994
-0.080011
-0.080011
-0.072006
-0.069974
-0.067008
-0.062985
-0.067008
-0.080986
-0.087000
-0.082002
-0.075013
-0.067983
-0.059003
-0.054980
-0.059978
-0.062985
-0.057011
-0.057987
-0.075988
-0.078995
-0.050997
-0.139014
-0.530983
-1.006986
-0.914987
-0.041976
0.857000
0.935020
0.313014
-0.267990
-0.435977
-0.356007
-0.261001
-0.208013
-0.172010
-0.131984
-0.092974
-0.068999
-0.062010
-0.057987
-0.049982
-0.041976
-0.036978
-0.029989
-0.021984
-0.023975
-0.037994
-0.037994
-0.018001
-0.008005
-0.029014
-0.059003
-0.069974
-0.072006
-0.082977
-0.087976
-0.067008
-0.039010
-0.031980
-0.049982
-0.072006
-0.090983
-0.098988
-0.083993
-0.054004
-0.042992
-0.064001
-0.085009
-0.075013
-0.044983
-0.034987
-0.055996
-0.077004
-0.059978
-0.024991
-0.029014
-0.075013
-0.090007
-0.044983
-0.018977
-0.062985
-0.108984
-0.103986
-0.113982
-0.183997
-0.244991
-0.236986
-0.174976
-0.090983
-0.013979
0.013003
-0.006989
-0.026007
-0.019993
-0.011012
-0.006989
-0.009996
-0.036003
-0.075988
-0.082002
-0.044983
-0.018001
-0.029014
-0.036003
-0.019993
-0.023000
-0.060994
-0.083993
-0.059003
-0.023975
-0.018977
-0.029989
-0.029014
-0.021008
-0.029989
-0.065992
-0.095981
-0.072006
-0.026007
-0.029989
-0.059978
-0.045999
-0.131009
-0.527976
-0.996989
-0.914987
-0.136982
0.656993
0.774023
0.295013
-0.218984
-0.425981
-0.392985
-0.300986
-0.233979
-0.177008
-0.123979
-0.095981
-0.096997
-0.095981
-0.080986
-0.067008
-0.064001
-0.059003
-0.052989
-0.064001
-0.087000
-0.090983
-0.069974
-0.050997
-0.049006
-0.055996
-0.067008
-0.077979
-0.073997
-0.062010
-0.077004
-0.111991
-0.119996
-0.085009
-0.055996
-0.065992
-0.090983
-0.088992
-0.064001
-0.052989
-0.065992
-0.072981
-0.059003
-0.042992
-0.041001
-0.042992
-0.045999
-0.049982
-0.049006
-0.049982
-0.065992
-0.075988
-0.052989
-0.013979
0.000000
-0.013003
-0.026007
-0.044008
-0.090007
-0.149010
-0.167987
-0.133975
-0.088992
-0.068999
-0.062010
-0.042992
-0.018977
-0.008005
0.001991
0.027023
0.042992
0.023000
-0.013003
-0.027998
-0.018001
-0.005973
-0.001991
-0.004998
-0.011012
-0.013003
-0.008980
-0.008005
-0.013979
-0.021984
-0.026982
-0.023000
-0.011987
-0.004998
-0.019993
-0.044008
-0.046975
-0.024991
-0.018001
-0.044983
-0.069974
-0.044983
-0.059003
-0.333007
-0.832985
-1.014991
-0.410986
0.568002
0.996989
0.597015
-0.045999
-0.374983
-0.397983
-0.328984
-0.234994
-0.126986
-0.054004
-0.029989
-0.024991
-0.029014
-0.032996
-0.019993
-0.005973
-0.013003
-0.011012
0.019993
0.041001
0.031005
0.032996
0.062010
0.064001
0.022024
-0.005973
0.009996
0.029014
0.018001
-0.005973
-0.014994
-0.004998
0.008005
0.004023
-0.008980
-0.018001
-0.021984
-0.016986
-0.001991
0.004998
-0.009996
-0.027998
-0.026982
-0.013003
0.004998
0.024016
0.029989
0.024016
0.023000
0.016010
-0.008005
-0.023000
-0.011012
-0.000975
-0.004998
0.006989
0.034012
0.029989
-0.023975
-0.080986
-0.098988
-0.078995
-0.044008
-0.011012
0.006989
0.011012
0.023000
0.057011
0.087000
0.085009
0.060018
0.045024
0.047990
0.042017
0.026007
0.021008
0.037019
0.047990
0.037994
0.022024
0.011987
0.006989
0.004998
0.009996
0.013003
0.009021
0.011012
0.018001
0.006014
-0.024991
-0.041976
-0.031980
-0.018977
-0.003982
0.022024
0.034987
-0.067008
-0.400990
-0.819006
-0.820998
-0.136007
0.702017
0.907998
0.431995
-0.118005
-0.333982
-0.303993
-0.229996
-0.172010
-0.121012
-0.072981
-0.036978
-0.024991
-0.029989
-0.026007
-0.000975
0.027023
0.034987
0.023000
0.000000
-0.018977
-0.016986
0.000000
0.004023
-0.011987
-0.019993
-0.013979
-0.018977
-0.024991
-0.004998
0.006014
-0.031005
-0.064976
-0.042992
-0.008980
-0.003982
0.001016
0.014019
-0.001991
-0.029014
-0.013003
0.029989
0.037019
0.009996
-0.004998
0.001016
0.001991
-0.003982
0.000000
0.017026
0.036003
0.042992
0.041001
0.045024
0.047015
0.019017
-0.026982
-0.062010
-0.098988
-0.154008
-0.185988
-0.152992
-0.072006
0.018001
0.088992
0.114023
0.098013
0.080011
0.077004
0.073997
0.063025
0.055996
0.052013
0.045024
0.031005
0.023000
0.034987
0.072006
0.111991
0.121987
0.101020
0.072006
0.055996
0.052013
0.052013
0.050022
0.045024
0.041001
0.044008
0.057011
0.070015
0.070015
0.054004
0.041001
0.037019
-0.041976
-0.308992
-0.673003
-0.768009
-0.328009
0.395992
0.814008
0.625013
0.095006
-0.300011
-0.359989
-0.228980
-0.126010
-0.103011
-0.083993
-0.031005
0.009996
0.003007
-0.008980
0.019017
0.068024
0.085009
0.062010
0.040026
0.045024
0.059003
0.067008
0.075013
0.075988
0.050997
0.016010
0.001991
0.004998
0.011012
0.023000
0.042017
0.050997
0.042992
0.034012
0.032996
0.027023
0.019017
0.024991
0.045024
0.054004
0.042992
0.032996
0.044008
0.067008
0.073997
0.060994
0.059003
0.073997
0.075013
0.049006
0.029989
0.044008
0.067008
0.067008
0.050997
0.034012
0.001016
-0.054980
-0.100004
-0.098988
-0.064976
-0.029989
0.004023
0.041001
0.067008
0.077004
0.093014
0.127026
0.149010
0.134016
0.101020
0.085009
0.087000
0.078995
0.055996
0.049006
0.073997
0.100004
0.091999
0.075988
0.091023
0.114998
0.111016
0.090007
0.083993
0.082002
0.068999
0.065017
0.088992
0.118005
0.119996
0.096021
0.075988
0.091999
0.088016
-0.103986
-0.507008
-0.781012
-0.530007
0.154008
0.720994
0.755006
0.354016
-0.087976
-0.295013
-0.272989
-0.169003
-0.085009
-0.031005
0.006014
0.029014
0.041001
0.045024
0.049006
0.063025
0.088992
0.105002
0.098988
0.091999
0.096021
0.093014
0.075988
0.067008
0.070015
0.065017
0.052013
0.055020
0.067008
0.063025
0.047015
0.042017
0.049006
0.052013
0.050997
0.059003
0.067008
0.064001
0.060018
0.070015
0.080986
0.070015
0.052013
0.055996
0.078995
0.096021
0.103011
0.106018
0.106993
0.104027
0.096997
0.091023
0.087000
0.085009
0.088016
0.104027
0.121987
0.103011
0.040026
-0.014994
-0.016986
0.019017
0.057987
0.085009
0.098013
0.100004
0.103011
0.119021
0.139014
0.146003
0.136007
0.126010
0.129017
0.134016
0.124994
0.109025
0.101020
0.098988
0.095006
0.093014
0.096021
0.096997
0.096021
0.105002
0.116989
0.111016
0.096021
0.098013
0.111991
0.106018
0.085009
0.086025
0.098013
0.098013
0.101995
0.044008
-0.251980
-0.701976
-0.786010
-0.177008
0.661991
0.963993
0.579014
0.009996
-0.288999
-0.290990
-0.185013
-0.095006
-0.036978
0.001991
0.023000
0.032021
0.042017
0.060018
0.075988
0.085009
0.091999
0.095006
0.091023
0.086025
0.085009
0.083993
0.083018
0.083993
0.078020
0.063025
0.052013
0.050022
0.050022
0.050022
0.054004
0.055020
0.045024
0.041001
0.050997
0.060018
0.054004
0.044008
0.050022
0.068999
0.068999
0.044008
0.031005
0.052013
0.073997
0.060994
0.027998
0.004998
0.000000
0.013003
0.045999
0.091999
0.121012
0.111016
0.068024
0.032996
0.037994
0.057011
0.034987
-0.019993
-0.031980
0.024991
0.078995
0.068024
0.032996
0.047990
0.101020
0.132024
0.131009
0.126010
0.119021
0.101995
0.091023
0.096021
0.101995
0.101020
0.098988
0.093014
0.093990
0.113007
0.132024
0.124994
0.104027
0.096021
0.096997
0.090007
0.078995
0.073997
0.075013
0.075988
0.083018
0.093990
0.091023
0.080986
0.088992
0.055020
-0.169003
-0.573000
-0.814983
-0.527976
0.178999
0.747000
0.743018
0.282010
-0.177008
-0.334998
-0.261976
-0.160997
-0.108009
-0.059003
-0.003982
0.023000
0.027998
0.042017
0.060018
0.055996
0.037994
0.034012
0.049006
0.062010
0.057011
0.044008
0.037994
0.047015
0.055996
0.052013
0.032021
0.009021
-0.000975
0.011987
0.034987
0.042017
0.031005
0.022024
0.023000
0.027023
0.022024
0.014994
0.016010
0.027998
0.044008
0.050997
0.047015
0.039010
0.037019
0.044008
0.052013
0.052013
0.045999
0.055996
0.077004
0.080986
0.055996
0.029989
0.029014
0.042992
0.037994
-0.003982
-0.054004
-0.064001
-0.021984
0.031005
0.054004
0.050022
0.052013
0.067008
0.078020
0.078995
0.086025
0.100004
0.100004
0.086025
0.077004
0.072006
0.064001
0.063025
0.075013
0.085009
0.082002
0.078020
0.073997
0.065017
0.050997
0.041001
0.041001
0.047990
0.055996
0.060018
0.064001
0.068999
0.064001
0.052989
0.045024
0.041001
0.047990
0.070990
0.011987
-0.302002
-0.758013
-0.837008
-0.233003
0.589010
0.888005
0.526025
-0.016986
-0.320004
-0.344995
-0.247998
-0.149010
-0.091999
-0.062985
-0.032996
0.001991
0.024016
0.027023
0.029989
0.041001
0.042017
0.023000
0.013003
0.032996
0.060018
0.068999
0.062010
0.047990
0.029014
0.011012
0.006989
0.014994
0.019017
0.011012
-0.000975
-0.003982
-0.000975
0.001991
0.003007
0.004998
0.009021
0.016010
0.032021
0.047015
0.049006
0.040026
0.029014
0.024991
0.031005
0.042992
0.049006
0.045024
0.049006
0.063025
0.070015
0.052989
0.032021
0.027998
0.041001
0.045999
0.024016
-0.023000
-0.059978
-0.054004
-0.024991
-0.003007
0.014019
0.036003
0.050022
0.052013
0.064001
0.096021
0.123003
0.121987
0.096021
0.072006
0.073022
0.080011
0.065992
0.047015
0.052013
0.067008
0.064001
0.052989
0.052013
0.055020
0.049006
0.044008
0.047015
0.050022
0.047015
0.047015
0.054004
0.055996
0.047015
0.042017
0.047015
0.050997
0.039010
0.037019
0.037994
-0.100004
-0.481001
-0.822013
-0.632978
0.104027
0.769025
0.807994
0.329025
-0.167987
-0.364987
-0.308992
-0.190986
-0.116989
-0.080986
-0.052989
-0.026007
-0.000975
0.019993
0.027998
0.024991
0.024991
0.034012
0.042992
0.042017
0.037994
0.036003
0.031005
0.019993
0.008005
0.003007
0.006014
0.006989
0.001991
0.000000
0.000000
-0.001991
-0.003007
0.009021
0.027023
0.027023
0.006014
-0.011012
-0.009996
0.001016
0.011012
0.014994
0.017026
0.019993
0.019017
0.016010
0.021008
0.032996
0.034012
0.026007
0.027023
0.045999
0.060994
0.055996
0.045024
0.045024
0.044008
0.016010
-0.031980
-0.068999
-0.070990
-0.042992
-0.003982
0.029014
0.041001
0.039010
0.042017
0.057987
0.075013
0.080986
0.080011
0.078020
0.068024
0.054004
0.049006
0.052013
0.052013
0.050997
0.049006
0.040026
0.029989
0.031005
0.040026
0.042017
0.034987
0.036003
0.045999
0.050022
0.045024
0.037994
0.037019
0.041001
0.040026
0.029989
0.017026
0.009021
0.011012
0.040026
0.052013
-0.110975
-0.518995
-0.845013
-0.614001
0.137023
0.766993
0.764027
0.280019
-0.188995
-0.374008
-0.338980
-0.241009
-0.164004
-0.116989
-0.080986
-0.049006
-0.023000
-0.000975
0.014994
0.019017
0.014994
0.014019
0.018001
0.023000
0.024991
0.023000
0.016010
0.011012
0.008005
0.001991
-0.004998
-0.011012
-0.018001
-0.024991
-0.024991
-0.018001
-0.016010
-0.023000
-0.026007
-0.013003
0.004998
0.009021
0.000000
-0.003007
0.009021
0.022024
0.019993
0.004998
-0.008980
-0.004998
0.011987
0.024016
0.021008
0.009021
0.004998
0.013003
0.021008
0.022024
0.014994
0.011987
0.014994
0.006989
-0.029989
-0.083993
-0.108984
-0.080011
-0.024991
0.009996
0.014994
0.013003
0.019017
0.037019
0.068999
0.096997
0.093014
0.062010
0.045999
0.054004
0.055996
0.050022
0.073997
0.116014
0.121987
0.106018
0.124019
0.141005
0.088992
0.034012
0.070990
0.134016
0.106993
0.031005
-0.009996
-0.029989
-0.044008
-0.000975
0.083018
0.098988
0.029014
-0.021008
-0.004998
0.034987
0.034012
-0.118005
-0.497987
-0.850986
-0.684991
0.070015
0.792024
0.853993
0.336989
-0.188995
-0.374008
-0.310007
-0.220000
-0.182006
-0.159982
-0.115973
-0.059003
-0.014994
-0.003982
-0.018977
-0.034987
-0.032996
-0.013979
0.013003
0.034012
0.037994
0.024991
0.008005
0.001991
0.004998
0.006989
0.000000
-0.008005
-0.011012
-0.011012
-0.006989
0.001991
-0.003007
-0.027998
-0.047990
-0.045999
-0.034987
-0.021984
-0.001991
0.017026
0.019993
0.001016
-0.032996
-0.062985
-0.064001
-0.052013
-0.087976
-0.156975
-0.131009
0.037019
0.198992
0.208013
0.116014
0.050997
0.029014
0.011012
-0.009996
-0.029989
-0.055996
-0.067983
-0.049006
-0.026982
-0.019993
-0.000975
0.039010
0.062010
0.050022
0.042992
0.063025
0.086025
0.088992
0.075013
0.052989
0.029014
0.017026
0.027023
0.045024
0.042017
0.016010
0.001991
0.018001
0.037019
0.029989
0.013003
0.019993
0.045024
0.060994
0.050997
0.023000
0.001016
0.000000
0.011987
0.022024
0.027998
0.032021
0.032996
0.037994
-0.003007
-0.238977
-0.683975
-0.947008
-0.558980
0.321020
0.920026
0.751999
0.136007
-0.325002
-0.413993
-0.300986
-0.182981
-0.121012
-0.095006
-0.069974
-0.042992
-0.031005
-0.027998
-0.006989
0.024016
0.034012
0.022024
0.011012
0.009021
0.014019
0.016010
0.004023
-0.008005
0.001016
0.014019
0.009021
-0.004998
-0.011012
-0.016010
-0.023975
-0.029014
-0.032996
-0.044983
-0.054980
-0.050997
-0.036978
-0.037994
-0.064976
-0.090007
-0.073997
-0.029989
-0.011012
-0.029014
-0.039010
-0.008980
0.032021
0.047990
0.042017
0.034012
0.031005
0.016010
-0.011987
-0.034012
-0.021984
0.009996
0.019993
-0.013979
-0.072981
-0.121987
-0.141005
-0.119996
-0.077979
-0.039985
-0.006989
0.026007
0.041001
0.027023
0.014019
0.029989
0.055996
0.052989
0.019993
0.001991
0.024016
0.049006
0.037019
0.016010
0.024016
0.034987
0.001016
-0.044983
-0.034987
0.011012
0.024016
0.008005
0.014019
0.027023
0.004998
-0.021984
-0.003982
0.019993
-0.013003
-0.064976
-0.054980
-0.011012
-0.085009
-0.407979
-0.838999
-0.916978
-0.335973
0.525009
0.907998
0.571009
-0.018001
-0.356982
-0.382989
-0.289974
-0.216993
-0.174976
-0.128977
-0.073997
-0.045999
-0.055996
-0.069974
-0.059978
-0.034012
-0.009996
0.008005
0.014994
-0.001991
-0.034987
-0.041976
0.001016
0.045999
0.027023
-0.041976
-0.080986
-0.046975
0.009996
0.026007
0.001991
-0.021984
-0.029014
-0.026982
-0.019993
-0.023975
-0.052013
-0.069974
-0.026982
0.034012
0.031005
-0.016010
-0.019993
0.018001
0.027023
0.001016
-0.013979
-0.005973
0.004998
0.017026
0.042017
0.057011
0.039010
0.008005
0.001016
0.013003
0.004023
-0.034012
-0.073997
-0.095006
-0.093990
-0.062985
-0.009996
0.022024
0.008005
-0.016010
-0.003007
0.034987
0.060018
0.065017
0.075013
0.085009
0.075988
0.052013
0.041001
0.045024
0.049006
0.049006
0.050022
0.047990
0.037994
0.034012
0.045024
0.052989
0.050997
0.049006
0.047015
0.022024
-0.011012
-0.008005
0.031005
0.047015
0.017026
0.003007
0.016010
-0.119996
-0.553007
-0.975006
-0.778981
0.095006
0.889021
0.917994
0.341012
-0.220000
-0.436993
-0.397983
-0.280994
-0.177983
-0.108984
-0.065992
-0.041976
-0.034012
-0.026007
-0.011987
0.003007
0.009021
0.006989
0.004998
0.004023
0.009996
0.026007
0.042017
0.036003
0.009996
-0.013003
-0.013979
-0.001991
0.000000
-0.009996
-0.013003
-0.008005
-0.009996
-0.021984
-0.026982
-0.018001
-0.006989
0.000000
0.004023
0.001991
0.000000
0.003007
0.008005
0.016010
0.029014
0.042992
0.041001
0.023000
0.011987
0.018001
0.027023
0.027023
0.023000
0.027998
0.041001
0.050022
0.045999
0.027998
0.001016
-0.036003
-0.068999
-0.067008
-0.018977
0.036003
0.052013
0.031005
0.013003
0.021008
0.040026
0.057011
0.070015
0.073022
0.060018
0.032996
0.009996
0.009021
0.027998
0.050022
0.059003
0.052013
0.032021
0.011012
0.009021
0.027998
0.036003
0.017026
0.003007
0.009021
0.009996
-0.009996
-0.026007
-0.009996
0.014994
0.011987
0.011012
0.034012
-0.067983
-0.467998
-0.927991
-0.860008
-0.083993
0.779021
0.986993
0.497012
-0.128977
-0.425006
-0.389003
-0.261001
-0.182006
-0.139989
-0.103011
-0.077004
-0.055996
-0.026007
0.000000
0.001991
-0.008980
-0.008980
0.003007
0.011012
0.004998
-0.008980
-0.016986
-0.016010
-0.013003
-0.013003
-0.009996
-0.011012
-0.021008
-0.037994
-0.049982
-0.052013
-0.052013
-0.059978
-0.075013
-0.082002
-0.067983
-0.036978
-0.003007
0.027998
0.050022
0.049006
0.029014
0.014019
0.011987
0.013003
0.013003
0.011987
-0.001991
-0.021984
-0.023000
0.001991
0.031005
0.042017
0.037994
0.029989
0.024991
0.019017
0.001991
-0.032996
-0.070990
-0.090983
-0.080011
-0.039010
0.014019
0.044008
0.037994
0.024016
0.029989
0.049006
0.060994
0.067008
0.067008
0.057987
0.041001
0.022024
0.006989
0.004023
0.016010
0.031005
0.032021
0.024991
0.024991
0.032021
0.037994
0.039010
0.034012
0.016010
0.000000
0.004023
0.023000
0.034012
0.021008
0.003007
0.000000
0.004023
0.006014
0.029989
-0.009996
-0.328009
-0.850986
-0.986993
-0.321995
0.641999
1.016007
0.610019
-0.011012
-0.346986
-0.377990
-0.297004
-0.210979
-0.133975
-0.073997
-0.044008
-0.031005
-0.011012
0.009996
0.014019
0.001016
-0.006989
0.006989
0.034987
0.050022
0.040026
0.024991
0.024991
0.029014
0.019993
0.011987
0.018001
0.027023
0.021008
0.003007
-0.008980
-0.009996
-0.005973
-0.008005
-0.013979
-0.013003
0.001991
0.024991
0.037019
0.034987
0.026007
0.016010
0.009021
0.006989
0.014019
0.029014
0.041001
0.037994
0.032021
0.042017
0.057987
0.055996
0.037994
0.026007
0.024991
0.023000
0.019017
0.011987
-0.011987
-0.047990
-0.055996
-0.014994
0.034987
0.049006
0.037994
0.045024
0.070015
0.090007
0.098988
0.106018
0.101020
0.072006
0.045024
0.050022
0.070990
0.072006
0.057011
0.057987
0.070990
0.067008
0.049006
0.047015
0.064001
0.070015
0.057987
0.049006
0.054004
0.055020
0.052013
0.052989
0.054004
0.049006
0.052989
0.063025
0.057987
0.050022
0.054004
-0.054004
-0.428013
-0.861999
-0.806978
-0.047990
0.830019
1.050019
0.541020
-0.103011
-0.400990
-0.366003
-0.236986
-0.147994
-0.093990
-0.046975
-0.013003
-0.000975
0.006014
0.024016
0.042017
0.041001
0.034987
0.052013
0.085009
0.098013
0.075013
0.042017
0.032021
0.037994
0.037994
0.029989
0.031005
0.039010
0.042017
0.029014
0.008005
-0.000975
0.011987
0.032996
0.042017
0.034987
0.031005
0.032021
0.031005
0.027998
0.034012
0.040026
0.036003
0.034012
0.045024
0.060018
0.065017
0.065017
0.060994
0.047990
0.040026
0.054004
0.078995
0.085009
0.070015
0.059003
0.055996
0.034012
-0.018977
-0.059978
-0.042992
0.018001
0.067008
0.078020
0.065992
0.063025
0.078995
0.101020
0.114998
0.121012
0.119996
0.103011
0.075013
0.065992
0.083993
0.101020
0.093990
0.073997
0.067008
0.068999
0.064001
0.054004
0.055996
0.065992
0.060994
0.052013
0.063025
0.078020
0.075988
0.080986
0.105002
0.119996
0.121987
0.127026
0.106993
0.060018
0.059003
0.042992
-0.233979
-0.725992
-0.832985
-0.146003
0.784995
1.042013
0.508024
-0.134991
-0.374008
-0.307000
-0.215977
-0.182006
-0.147994
-0.096997
-0.054004
-0.023000
0.003007
0.014994
0.001991
-0.016986
-0.021984
-0.013979
-0.011987
-0.018977
-0.018977
-0.008980
-0.013979
-0.044983
-0.062985
-0.039985
-0.003007
0.006989
-0.003007
-0.011987
-0.016010
-0.008980
0.004998
0.013003
0.011987
0.008005
0.004998
0.014994
0.049006
0.083993
0.087000
0.062010
0.037994
0.029014
0.042992
0.065017
0.068999
0.057011
0.060018
0.078020
0.083018
0.070015
0.057987
0.050022
0.032021
0.001991
-0.001991
0.045024
0.083993
0.032996
-0.055996
-0.057987
0.026007
0.078020
0.068024
0.070015
0.106018
0.123003
0.114023
0.114998
0.119996
0.098988
0.077004
0.085009
0.100004
0.091023
0.078995
0.088992
0.108009
0.114023
0.104027
0.088016
0.073022
0.065992
0.070015
0.078020
0.075988
0.063025
0.062010
0.073022
0.067008
0.045999
0.042017
0.052989
0.052989
0.041001
0.036003
0.049006
-0.008005
-0.311999
-0.796982
-0.922992
-0.266975
0.705999
1.078992
0.633993
-0.003007
-0.303993
-0.313990
-0.259985
-0.192977
-0.103011
-0.031980
0.001991
0.016010
0.019993
0.014019
0.009996
0.008005
0.000000
0.001991
0.034987
0.078995
0.083018
0.037019
0.000000
0.022024
0.070015
0.070990
0.023000
-0.014994
-0.008980
0.019017
0.031005
0.013003
-0.021008
-0.034012
-0.003007
0.039010
0.047990
0.017026
-0.009996
-0.000975
0.023000
0.031005
0.032021
0.037994
0.031005
0.013003
0.026007
0.070990
0.096021
0.080011
0.057011
0.039010
0.013003
-0.008980
-0.016010
-0.021008
-0.031980
-0.029014
-0.018977
-0.031980
-0.044983
0.000000
0.080986
0.124019
0.106993
0.070015
0.055020
0.068024
0.088992
0.086025
0.060018
0.040026
0.037994
0.047015
0.064001
0.078995
0.067008
0.032021
0.019993
0.054004
0.096021
0.096021
0.055996
0.023000
0.027023
0.054004
0.055996
0.024991
0.008005
0.034012
0.059003
0.047015
0.032996
0.042992
0.052013
0.064001
0.068999
-0.101995
-0.564995
-0.962978
-0.699985
0.198016
0.945017
0.921001
0.343003
-0.182006
-0.366978
-0.316997
-0.213986
-0.128001
-0.064976
-0.031980
-0.032996
-0.044983
-0.036978
-0.000975
0.045024
0.070015
0.059003
0.029989
0.016010
0.021008
0.029989
0.031005
0.024991
0.018001
0.014994
0.016010
0.016010
0.014994
0.024016
0.039010
0.037994
0.011987
-0.021008
-0.027998
-0.008980
0.009021
0.016010
0.023000
0.022024
-0.003007
-0.029989
-0.021984
0.013003
0.040026
0.045024
0.027998
-0.003982
-0.024991
-0.013979
0.021008
0.059003
0.075013
0.052989
0.011987
-0.005973
0.011987
0.036003
0.034987
0.014019
-0.013003
-0.037994
-0.057011
-0.064001
-0.064001
-0.059978
-0.027998
0.045024
0.113007
0.119021
0.073022
0.037994
0.039010
0.042017
0.027998
0.024016
0.037019
0.037994
0.031005
0.054004
0.088992
0.080986
0.034012
0.006014
0.018001
0.042992
0.052989
0.034987
0.018001
0.034012
0.059003
0.045024
0.019017
0.024016
0.024991
-0.004998
-0.003007
-0.003982
-0.238977
-0.712989
-0.901009
-0.334998
0.615017
1.068995
0.697994
0.022024
-0.359014
-0.369010
-0.275996
-0.243975
-0.229996
-0.160997
-0.067008
-0.031005
-0.042992
-0.023000
0.032996
0.045999
0.004998
-0.018977
0.006014
0.045999
0.062010
0.052013
0.029989
0.009021
-0.003007
-0.014994
-0.031980
-0.031980
0.009996
0.065992
0.068999
0.011012
-0.023975
0.011987
0.055996
0.026007
-0.042992
-0.054004
0.006014
0.057011
0.052989
0.024016
0.006989
0.013003
0.045024
0.078995
0.073022
0.027023
0.006014
0.044008
0.087000
0.075013
0.039010
0.037019
0.062010
0.067008
0.045024
0.023000
0.016010
0.006014
-0.019993
-0.054004
-0.064001
-0.034012
0.017026
0.047015
0.040026
0.029014
0.050022
0.083993
0.088016
0.068024
0.065992
0.078995
0.073022
0.042017
0.019017
0.024991
0.045999
0.049006
0.022024
0.000000
0.004998
0.014994
0.016010
0.022024
0.018001
-0.013003
-0.027998
0.004998
0.036003
0.011987
-0.032996
-0.046975
-0.034987
-0.003007
0.021008
-0.128001
-0.581005
-1.021005
-0.830994
0.065017
0.884998
0.912021
0.344019
-0.156975
-0.320979
-0.302002
-0.249989
-0.195009
-0.139989
-0.073997
-0.016010
-0.008005
-0.034987
-0.044008
-0.049982
-0.087976
-0.101995
-0.019993
0.082002
0.067008
-0.036003
-0.064001
0.022024
0.090007
0.057011
-0.001991
-0.014994
0.003007
0.006989
-0.023975
-0.069974
-0.068999
0.004023
0.055996
0.014019
-0.045999
-0.032996
0.009996
0.006014
-0.026982
-0.041976
-0.034987
-0.014994
0.006014
-0.004998
-0.037994
-0.034012
-0.011987
-0.031005
-0.044983
0.014994
0.057011
0.003007
-0.050997
-0.036978
-0.039010
-0.090983
-0.103011
-0.062985
-0.062985
-0.110975
-0.124994
-0.087976
-0.052013
-0.036003
-0.021008
-0.011987
-0.008005
0.004998
0.013003
-0.011012
-0.047990
-0.065992
-0.067983
-0.062985
-0.036003
-0.003982
-0.018001
-0.065992
-0.090983
-0.088992
-0.095981
-0.095981
-0.070990
-0.055996
-0.082002
-0.118980
-0.133000
-0.119996
-0.095981
-0.090007
-0.113982
-0.137998
-0.136007
-0.115973
-0.087976
-0.114998
-0.364012
-0.815999
-0.990000
-0.438984
0.480026
0.909014
0.558005
-0.055996
-0.385996
-0.392010
-0.305009
-0.259010
-0.236986
-0.208013
-0.177983
-0.151976
-0.111991
-0.060994
-0.036003
-0.049006
-0.072006
-0.080986
-0.080011
-0.077979
-0.064001
-0.036978
-0.021984
-0.041976
-0.069974
-0.067008
-0.042992
-0.039985
-0.062985
-0.080986
-0.083993
-0.082977
-0.085009
-0.085009
-0.082977
-0.083993
-0.087000
-0.090983
-0.096997
-0.100004
-0.095006
-0.092974
-0.110975
-0.131984
-0.126010
-0.105002
-0.098013
-0.095006
-0.078995
-0.077004
-0.106993
-0.128001
-0.110000
-0.085009
-0.091999
-0.116989
-0.123003
-0.110000
-0.128001
-0.185013
-0.221991
-0.192977
-0.134991
-0.098013
-0.085985
-0.082977
-0.087000
-0.096997
-0.103011
-0.095981
-0.087000
-0.091999
-0.111991
-0.121987
-0.119996
-0.126986
-0.141980
-0.134991
-0.114998
-0.121012
-0.149985
-0.162989
-0.147994
-0.131009
-0.128977
-0.139014
-0.144012
-0.129993
-0.106993
-0.115973
-0.159982
-0.185013
-0.152992
-0.113982
-0.110000
-0.116989
-0.157990
-0.387012
-0.809985
-1.008977
-0.527976
0.385020
0.897026
0.600997
-0.036978
-0.400990
-0.415009
-0.333007
-0.274980
-0.223982
-0.192002
-0.190986
-0.172010
-0.116989
-0.080986
-0.092974
-0.110975
-0.101995
-0.087976
-0.087000
-0.080986
-0.067983
-0.069974
-0.090007
-0.105002
-0.095006
-0.064976
-0.047990
-0.062985
-0.098013
-0.128001
-0.146978
-0.146003
-0.121012
-0.114998
-0.154983
-0.197976
-0.210004
-0.223982
-0.241984
-0.192002
-0.067008
0.023000
0.009021
-0.049982
-0.075988
-0.073997
-0.082977
-0.100004
-0.101995
-0.091999
-0.082002
-0.067983
-0.041976
-0.024991
-0.045999
-0.085985
-0.090007
-0.059978
-0.057987
-0.105002
-0.144012
-0.128977
-0.085009
-0.054004
-0.039985
-0.023000
-0.003982
0.001016
-0.011012
-0.019993
-0.023975
-0.031005
-0.034987
-0.023000
-0.011012
-0.013003
-0.014994
-0.013003
-0.029989
-0.067008
-0.083993
-0.059978
-0.036003
-0.044983
-0.060994
-0.050997
-0.032996
-0.036978
-0.052989
-0.057011
-0.050997
-0.050997
-0.052989
-0.059978
-0.085009
-0.096997
-0.069974
-0.147994
-0.512006
-0.932013
-0.824980
-0.031005
0.794016
0.924008
0.405988
-0.154983
-0.371976
-0.323986
-0.234994
-0.192977
-0.167987
-0.128977
-0.090007
-0.072006
-0.070990
-0.069974
-0.062010
-0.054980
-0.052013
-0.050997
-0.049006
-0.050997
-0.052013
-0.045999
-0.041001
-0.039985
-0.036003
-0.036978
-0.052013
-0.062985
-0.052013
-0.039010
-0.049982
-0.078995
-0.100004
-0.088992
-0.055996
-0.042992
-0.067008
-0.088992
-0.077004
-0.059003
-0.067983
-0.087976
-0.090983
-0.080986
-0.080986
-0.088992
-0.085985
-0.073997
-0.072006
-0.072981
-0.064976
-0.062985
-0.077979
-0.075013
-0.039985
-0.023975
-0.062985
-0.119996
-0.157990
-0.172985
-0.164004
-0.123979
-0.077979
-0.065992
-0.073997
-0.060994
-0.024991
-0.008005
-0.029989
-0.067983
-0.080986
-0.059003
-0.034012
-0.031980
-0.042992
-0.052989
-0.069974
-0.087000
-0.075988
-0.042992
-0.039010
-0.073997
-0.092974
-0.067008
-0.046975
-0.072981
-0.105002
-0.083993
-0.036003
-0.031980
-0.069974
-0.093990
-0.093990
-0.091999
-0.080986
-0.147994
-0.484008
-0.934005
-0.860008
-0.003982
0.889996
0.957004
0.324027
-0.241984
-0.384980
-0.311999
-0.256978
-0.229996
-0.182006
-0.128001
-0.110000
-0.118980
-0.103011
-0.057011
-0.044983
-0.082002
-0.103011
-0.083993
-0.078995
-0.095006
-0.082977
-0.052989
-0.046975
-0.047990
-0.023000
0.001016
-0.001991
-0.013003
-0.016010
-0.023975
-0.037994
-0.047990
-0.049982
-0.057987
-0.070990
-0.069974
-0.050997
-0.052013
-0.087976
-0.113982
-0.085009
-0.039985
-0.029014
-0.041976
-0.039985
-0.029014
-0.027998
-0.026982
-0.013003
0.000000
-0.000975
-0.008980
-0.013003
-0.011012
-0.004998
-0.004998
-0.016986
-0.027998
-0.037994
-0.059978
-0.087976
-0.095981
-0.077004
-0.039985
0.003007
0.034987
0.045024
0.040026
0.032996
0.034987
0.045024
0.052013
0.044008
0.023000
0.011987
0.019993
0.029014
0.019993
-0.000975
-0.008005
0.006014
0.019993
0.019993
0.016010
0.009996
-0.003007
-0.009996
0.009021
0.036003
0.031005
-0.011987
-0.039985
-0.019993
-0.001991
-0.018001
-0.018977
-0.068999
-0.402006
-0.909014
-0.930998
-0.118980
0.853993
1.075009
0.531999
-0.080986
-0.328009
-0.300011
-0.206997
-0.131984
-0.087976
-0.072981
-0.068999
-0.059978
-0.044983
-0.029014
-0.013979
-0.003007
0.004998
0.014994
0.019993
0.006014
-0.013003
-0.011012
0.013003
0.023000
0.008005
-0.009996
-0.008005
0.011012
0.024991
0.014994
-0.011012
-0.021984
-0.013003
-0.011987
-0.027998
-0.036003
-0.023975
-0.018001
-0.026007
-0.026982
-0.016010
-0.004998
0.013003
0.034987
0.034012
0.006014
-0.008005
0.004998
0.018001
0.014019
0.009021
0.009021
0.008005
0.006989
0.018001
0.032021
0.024991
-0.004998
-0.031005
-0.046975
-0.064976
-0.075988
-0.052013
-0.006989
0.019993
0.032021
0.049006
0.065992
0.065992
0.050997
0.034987
0.024016
0.019993
0.019993
0.019017
0.021008
0.016010
-0.013003
-0.041976
-0.031005
0.013003
0.040026
0.036003
0.031005
0.040026
0.047015
0.042017
0.034012
0.024016
0.009021
-0.004998
0.001991
0.023000
0.021008
-0.013003
-0.008005
-0.005973
-0.246007
-0.733997
-0.901009
-0.256003
0.755006
1.175988
0.735988
0.044008
-0.307976
-0.305985
-0.213986
-0.162989
-0.128977
-0.087000
-0.045999
-0.019993
-0.008980
0.000000
0.017026
0.036003
0.041001
0.032021
0.029989
0.040026
0.045999
0.047990
0.057987
0.072006
0.065017
0.034987
0.001991
-0.008980
0.009021
0.041001
0.054004
0.031005
0.001016
0.001991
0.029014
0.041001
0.026007
0.008005
0.009996
0.024016
0.029014
0.021008
0.019993
0.027998
0.027023
0.014994
0.014994
0.024016
0.031005
0.037994
0.045024
0.042017
0.040026
0.042017
0.026007
-0.008980
-0.018001
0.004998
0.009021
-0.027998
-0.062985
-0.064001
-0.041001
-0.014994
0.006014
0.019993
0.031005
0.049006
0.075988
0.082002
0.055020
0.027998
0.029989
0.041001
0.027998
0.008005
0.009996
0.027998
0.036003
0.022024
-0.004998
-0.018977
-0.008005
-0.001991
-0.018977
-0.026982
-0.003982
0.019017
0.017026
0.004998
-0.004998
-0.018977
-0.023975
-0.013979
-0.023000
-0.064001
-0.070990
-0.039985
-0.201999
-0.691005
-1.027994
-0.545002
0.528992
1.139010
0.774998
0.021008
-0.392985
-0.389978
-0.274980
-0.224998
-0.213011
-0.192977
-0.190011
-0.211995
-0.177008
-0.059003
0.034012
0.029989
-0.006989
-0.000975
0.029989
0.034987
0.006989
-0.027998
-0.052989
-0.072006
-0.077004
-0.041976
0.011012
0.024991
0.004023
0.004023
0.019993
-0.003007
-0.054004
-0.064001
-0.016010
0.026007
0.011987
-0.016986
-0.008980
0.016010
0.004998
-0.031005
-0.045999
-0.034012
-0.018001
-0.004998
0.004023
-0.001991
-0.016986
-0.018001
-0.001991
0.009996
0.017026
0.029989
0.039010
0.032021
0.023000
0.019017
-0.008005
-0.067008
-0.118980
-0.118980
-0.075013
-0.027998
-0.005973
-0.003007
0.001016
0.014019
0.024991
0.024016
0.027023
0.045024
0.060018
0.047990
0.022024
0.009996
0.009996
0.003007
-0.001991
0.011987
0.034012
0.040026
0.031005
0.029989
0.037994
0.027023
-0.011012
-0.036978
-0.016010
0.032021
0.052013
0.027998
-0.001991
-0.008980
-0.016010
-0.024991
-0.018977
-0.124994
-0.515988
-0.947983
-0.801005
0.062010
0.904991
0.986018
0.421023
-0.147994
-0.359014
-0.315006
-0.226989
-0.174001
-0.134991
-0.092974
-0.055996
-0.034012
-0.021984
-0.013979
-0.014994
-0.026982
-0.036003
-0.026007
-0.013979
-0.036978
-0.085985
-0.093990
-0.019993
0.078020
0.114023
0.086025
0.055020
0.040026
0.016010
-0.013979
-0.011012
0.013003
0.008005
-0.023000
-0.024991
0.009996
0.029989
0.014019
0.006014
0.029989
0.047990
0.034987
0.016010
0.021008
0.037019
0.045024
0.047990
0.049006
0.047015
0.042017
0.047990
0.065992
0.078995
0.067008
0.045999
0.042992
0.044008
0.017026
-0.026982
-0.052989
-0.054004
-0.036003
0.003007
0.041001
0.045024
0.032021
0.044008
0.075988
0.091999
0.091023
0.098988
0.111016
0.091023
0.050022
0.041001
0.067008
0.078020
0.072006
0.091999
0.121012
0.110000
0.078020
0.067008
0.049006
0.017026
0.023000
0.078020
0.111016
0.088992
0.057011
0.060018
0.080986
0.080986
0.050997
0.037019
0.029014
-0.159982
-0.655977
-1.055992
-0.704983
0.308992
1.045996
0.899017
0.257994
-0.211995
-0.330000
-0.267990
-0.174976
-0.106993
-0.067983
-0.034987
0.000000
0.021008
0.023000
0.029014
0.041001
0.042992
0.034987
0.031005
0.034012
0.042017
0.055996
0.065017
0.055996
0.037019
0.024991
0.019017
0.013003
0.004998
-0.013003
-0.036978
-0.037994
-0.021984
-0.054980
-0.133975
-0.133975
-0.005973
0.121987
0.131009
0.055996
-0.005973
-0.019993
0.004998
0.045999
0.063025
0.045999
0.026007
0.034012
0.055020
0.060994
0.055996
0.054004
0.047015
0.027023
0.018001
0.037994
0.060994
0.045024
-0.013003
-0.065992
-0.077004
-0.052013
-0.014994
0.019993
0.040026
0.041001
0.037994
0.052013
0.077004
0.096021
0.096997
0.085009
0.068999
0.054004
0.040026
0.026007
0.019017
0.027998
0.050997
0.070990
0.073997
0.060018
0.052013
0.055996
0.055020
0.040026
0.032996
0.042017
0.049006
0.042017
0.037994
0.047015
0.040026
0.014019
0.016010
0.017026
-0.195009
-0.696003
-1.044980
-0.673979
0.272989
0.963018
0.861999
0.262017
-0.238977
-0.389003
-0.315006
-0.206997
-0.144012
-0.110975
-0.075988
-0.036978
-0.008980
0.009021
0.022024
0.027998
0.029014
0.034012
0.045024
0.044008
0.029989
0.022024
0.029014
0.037019
0.029989
0.021008
0.024991
0.032021
0.023000
0.004998
0.001991
0.011987
0.016010
0.011012
0.004998
0.001991
-0.003982
-0.006989
-0.001991
0.006989
0.013003
0.013003
0.011012
0.016010
0.027023
0.034987
0.034012
0.031005
0.029014
0.026007
0.023000
0.024016
0.027023
0.024016
0.024991
0.037019
0.049006
0.032021
-0.013003
-0.052989
-0.057987
-0.034987
-0.008980
0.003007
0.003007
0.008005
0.029989
0.060994
0.080986
0.082002
0.073022
0.060994
0.045999
0.031005
0.027023
0.039010
0.057011
0.063025
0.055996
0.045024
0.036003
0.029014
0.029989
0.041001
0.050022
0.042017
0.023000
0.016010
0.027023
0.032021
0.023000
0.019017
0.023000
0.014994
0.014019
0.026007
-0.101995
-0.535006
-0.994998
-0.825996
0.103011
0.981995
1.009993
0.362996
-0.221991
-0.399974
-0.331991
-0.225973
-0.149985
-0.106993
-0.085009
-0.064001
-0.034012
-0.001991
0.023000
0.037994
0.042992
0.044008
0.042017
0.039010
0.032996
0.029014
0.027998
0.029014
0.026007
0.021008
0.019993
0.016010
0.004023
-0.004998
-0.001991
0.003007
-0.001991
-0.004998
0.000000
0.004998
0.003007
0.003007
0.011987
0.022024
0.019993
0.006014
-0.005973
-0.003007
0.013003
0.027998
0.031005
0.022024
0.011012
0.009021
0.019017
0.042017
0.063025
0.067008
0.050022
0.031005
0.024991
0.018001
-0.009996
-0.054980
-0.085985
-0.080011
-0.039010
0.009021
0.037019
0.036003
0.024991
0.031005
0.055996
0.083993
0.098013
0.088016
0.063025
0.044008
0.040026
0.037994
0.027023
0.019017
0.023000
0.027998
0.027023
0.027023
0.032021
0.032021
0.026007
0.024991
0.032021
0.031005
0.019017
0.014019
0.023000
0.027023
0.013003
0.000000
-0.003982
-0.016986
-0.016010
0.024991
-0.064001
-0.494005
-0.990975
-0.865981
0.039010
0.935020
1.017998
0.403997
-0.206997
-0.418992
-0.351009
-0.246007
-0.185013
-0.139989
-0.095981
-0.064001
-0.045999
-0.027998
-0.008005
0.006989
0.022024
0.039010
0.040026
0.019993
0.004023
0.008005
0.014994
0.011012
0.004998
0.006989
0.014019
0.016010
0.009996
-0.003007
-0.014994
-0.019993
-0.021984
-0.023975
-0.026007
-0.023000
-0.016010
-0.009996
-0.000975
0.008005
0.004023
-0.011987
-0.018977
-0.003982
0.011012
0.006014
-0.005973
-0.005973
0.004998
0.018001
0.024016
0.017026
0.004998
-0.003007
-0.003982
-0.000975
0.006989
0.006014
-0.016010
-0.052989
-0.083993
-0.091999
-0.072981
-0.031980
0.004998
0.019993
0.026007
0.041001
0.057987
0.060994
0.052013
0.047990
0.049006
0.041001
0.022024
0.016010
0.029014
0.040026
0.031005
0.013003
0.000000
-0.001991
0.009021
0.024016
0.029014
0.027023
0.024991
0.019993
0.004998
-0.009996
-0.013003
-0.005973
0.000000
0.004023
0.006014
-0.003982
-0.013003
0.013003
-0.037994
-0.408995
-0.962978
-1.006986
-0.167987
0.861023
1.106989
0.523018
-0.149985
-0.420983
-0.384980
-0.289974
-0.218984
-0.157990
-0.108009
-0.077004
-0.054004
-0.026982
-0.003007
0.004023
-0.001991
-0.000975
0.008005
0.009021
0.004023
0.006989
0.013003
0.009021
0.000000
-0.000975
0.004998
0.008005
0.004998
-0.005973
-0.021008
-0.027998
-0.029989
-0.037994
-0.049006
-0.041976
-0.019993
-0.009996
-0.019993
-0.029989
-0.024991
-0.014994
-0.011987
-0.014994
-0.016986
-0.013003
-0.003982
-0.000975
-0.008980
-0.016010
-0.004998
0.011987
0.016010
0.011012
0.011987
0.014019
0.009996
0.003007
-0.009996
-0.036978
-0.077004
-0.108984
-0.114998
-0.087000
-0.034987
0.006014
0.009021
-0.008980
-0.004998
0.029989
0.062010
0.068999
0.052989
0.026007
0.004023
0.001991
0.017026
0.031005
0.029989
0.021008
0.014019
0.008005
-0.004998
-0.018977
-0.019993
-0.008005
0.004998
0.009996
0.011987
0.009021
0.001016
-0.003982
-0.008980
-0.023975
-0.034012
-0.013003
0.014994
0.003007
-0.014994
0.004998
-0.082977
-0.485999
-0.962002
-0.848995
0.050022
0.976022
1.076025
0.430004
-0.210004
-0.400990
-0.315981
-0.254012
-0.249014
-0.190011
-0.095981
-0.069974
-0.072006
-0.008005
0.060994
0.029989
-0.046975
-0.068999
-0.041976
-0.006989
0.019017
0.018001
-0.004998
-0.013979
-0.003982
-0.009996
-0.034012
-0.044008
-0.034012
-0.031005
-0.044983
-0.047990
-0.029989
-0.036003
-0.085985
-0.114998
-0.075988
-0.034987
-0.059003
-0.096997
-0.077979
-0.039010
-0.055996
-0.108984
-0.119996
-0.075013
-0.031980
-0.032996
-0.055996
-0.062985
-0.064001
-0.096997
-0.147994
-0.146978
-0.080986
-0.034987
-0.062010
-0.110975
-0.121012
-0.108984
-0.114998
-0.136982
-0.149010
-0.139989
-0.110975
-0.072981
-0.052013
-0.059978
-0.070990
-0.068999
-0.067983
-0.080011
-0.085985
-0.067008
-0.031005
-0.004998
-0.011012
-0.054980
-0.100004
-0.098013
-0.059978
-0.045999
-0.064001
-0.068999
-0.046975
-0.023000
-0.016010
-0.023000
-0.039010
-0.049982
-0.045999
-0.041001
-0.044983
-0.052013
-0.052013
-0.049982
-0.054980
-0.075013
-0.091999
-0.093990
-0.215002
-0.607987
-0.995974
-0.774998
0.088016
0.776014
0.666989
0.085009
-0.316997
-0.364987
-0.279978
-0.233003
-0.221991
-0.188995
-0.128977
-0.085009
-0.073997
-0.073997
-0.068999
-0.060994
-0.055996
-0.049006
-0.036003
-0.023000
-0.026007
-0.037994
-0.037994
-0.036003
-0.057011
-0.082977
-0.082002
-0.068999
-0.075988
-0.090007
-0.087000
-0.075013
-0.073997
-0.078995
-0.082977
-0.087000
-0.085009
-0.072006
-0.059003
-0.060994
-0.072981
-0.077979
-0.073997
-0.077004
-0.093990
-0.108009
-0.098988
-0.067008
-0.034012
-0.031005
-0.050997
-0.059978
-0.039985
-0.023975
-0.044008
-0.075988
-0.068999
-0.031005
-0.023000
-0.064976
-0.116989
-0.142996
-0.149985
-0.141980
-0.116989
-0.090983
-0.083993
-0.072981
-0.036978
-0.004998
-0.004998
-0.011012
-0.003982
-0.004998
-0.021984
-0.034012
-0.044008
-0.067008
-0.085985
-0.075013
-0.059003
-0.067008
-0.075013
-0.055996
-0.036978
-0.046975
-0.062010
-0.059003
-0.049006
-0.047990
-0.055996
-0.065992
-0.080986
-0.093990
-0.095981
-0.100004
-0.106993
-0.101995
-0.182006
-0.512981
-0.919985
-0.850011
-0.128001
0.604005
0.661991
0.157015
-0.325002
-0.481001
-0.417976
-0.333007
-0.290990
-0.238002
-0.139014
-0.052013
-0.029989
-0.044983
-0.055996
-0.064001
-0.073997
-0.075988
-0.072981
-0.083993
-0.096997
-0.085985
-0.062010
-0.067008
-0.101995
-0.111991
-0.070990
-0.026982
-0.029014
-0.062985
-0.082002
-0.068999
-0.047990
-0.041001
-0.045999
-0.049982
-0.055996
-0.070990
-0.085009
-0.082002
-0.068999
-0.059003
-0.052989
-0.046975
-0.039010
-0.029014
-0.021984
-0.031980
-0.052013
-0.059003
-0.045999
-0.034987
-0.041976
-0.047990
-0.029989
-0.006989
-0.011987
-0.041001
-0.064976
-0.080986
-0.119996
-0.177008
-0.202974
-0.157990
-0.072981
-0.013979
-0.013979
-0.046975
-0.064001
-0.042992
0.003007
0.042017
0.055020
0.042017
0.023000
0.011012
-0.000975
-0.018001
-0.029989
-0.026007
-0.014994
-0.008980
-0.008980
-0.005973
-0.008980
-0.019993
-0.026007
-0.021008
-0.016010
-0.018001
-0.024991
-0.031005
-0.029989
-0.024991
-0.031005
-0.034012
-0.036978
-0.192002
-0.623997
-1.006986
-0.760004
0.101020
0.814008
0.794991
0.256003
-0.249014
-0.448005
-0.408995
-0.297004
-0.213011
-0.167011
-0.128001
-0.085985
-0.059003
-0.057987
-0.065992
-0.059978
-0.044008
-0.041976
-0.057987
-0.070990
-0.072006
-0.080011
-0.091999
-0.077004
-0.045999
-0.044983
-0.067008
-0.073997
-0.060994
-0.046975
-0.044008
-0.062985
-0.093990
-0.095981
-0.067983
-0.052013
-0.057011
-0.049982
-0.026007
-0.021984
-0.055996
-0.095981
-0.100004
-0.072981
-0.054980
-0.054980
-0.044983
-0.023975
-0.013003
-0.016010
-0.018977
-0.016986
-0.013979
-0.008005
-0.008005
-0.021008
-0.044983
-0.069974
-0.100979
-0.134991
-0.162013
-0.167987
-0.144987
-0.103011
-0.069974
-0.062010
-0.057011
-0.034012
-0.005973
0.001991
-0.000975
-0.008005
-0.026007
-0.050997
-0.065992
-0.068999
-0.067008
-0.078995
-0.110975
-0.123003
-0.075013
-0.016010
-0.019993
-0.062985
-0.078995
-0.062010
-0.039985
-0.023975
-0.029014
-0.059003
-0.085985
-0.083993
-0.059978
-0.036978
-0.026982
-0.047990
-0.200983
-0.604005
-1.035999
-0.925999
-0.103011
0.755006
0.884023
0.344995
-0.223007
-0.433986
-0.376975
-0.264983
-0.182006
-0.115973
-0.062985
-0.044008
-0.052013
-0.045999
-0.018977
-0.000975
-0.008005
-0.019993
-0.018001
-0.004998
0.006989
0.003007
-0.021008
-0.041976
-0.039010
-0.031005
-0.036003
-0.039010
-0.039010
-0.055996
-0.085009
-0.100004
-0.103986
-0.111991
-0.108009
-0.075013
-0.034987
-0.024991
-0.039985
-0.034012
0.004998
0.029014
-0.003007
-0.054004
-0.064976
-0.039985
-0.021984
-0.021008
-0.018001
-0.008005
-0.004998
-0.003982
0.006989
0.022024
0.019017
-0.004998
-0.029989
-0.045999
-0.067008
-0.098013
-0.123979
-0.126986
-0.103011
-0.052013
0.004023
0.022024
-0.006989
-0.029989
0.003007
0.062010
0.080986
0.050022
0.011012
-0.003982
-0.003007
-0.006989
-0.014994
-0.014994
-0.005973
-0.001991
-0.001991
0.006989
0.019993
0.019993
0.006989
-0.000975
0.006989
0.022024
0.024991
0.009996
0.004023
0.022024
-0.021984
-0.284976
-0.729974
-0.963993
-0.586978
0.231987
0.807994
0.694012
0.146003
-0.287983
-0.389003
-0.305985
-0.211995
-0.142996
-0.090007
-0.054980
-0.034012
-0.021008
-0.013979
-0.001991
0.019993
0.034987
0.034987
0.032021
0.034012
0.031005
0.019993
-0.001991
-0.019993
-0.008980
0.021008
0.027998
0.001991
-0.023000
-0.026982
-0.016010
0.001991
0.014994
0.004998
-0.018001
-0.032996
-0.026007
-0.008980
0.001016
0.009021
0.024016
0.032996
0.016010
0.001016
0.023000
0.060018
0.063025
0.037994
0.029989
0.042992
0.040026
0.017026
0.014019
0.047015
0.085009
0.095006
0.073997
0.050022
0.045999
0.055996
0.052989
0.019017
-0.029989
-0.060994
-0.064001
-0.039985
0.008005
0.064001
0.098988
0.100004
0.090007
0.088992
0.096021
0.106993
0.114023
0.098013
0.050022
0.006014
0.003007
0.027998
0.027998
-0.009996
-0.042992
-0.029014
0.027023
0.088016
0.123003
0.129017
0.116014
0.093014
0.068024
0.047015
0.037994
0.045999
0.065992
0.070990
0.072006
0.085009
-0.001991
-0.351984
-0.804987
-0.858992
-0.264983
0.549025
0.912021
0.610019
0.013003
-0.387987
-0.430979
-0.288999
-0.162013
-0.095006
-0.057987
-0.031980
-0.008980
0.014019
0.023000
0.019017
0.026007
0.042992
0.045024
0.032021
0.027023
0.029014
0.024991
0.021008
0.027023
0.032021
0.027023
0.022024
0.017026
0.003007
-0.016986
-0.023000
-0.005973
0.009021
0.000000
-0.023000
-0.026982
-0.005973
0.013003
0.011987
-0.001991
-0.013003
-0.003982
0.026007
0.050022
0.042017
0.023000
0.019993
0.021008
0.014019
0.014994
0.037019
0.057011
0.052013
0.037994
0.041001
0.052013
0.045999
0.016010
-0.026982
-0.067983
-0.092974
-0.087000
-0.045999
0.009996
0.045999
0.045999
0.034012
0.042992
0.073997
0.093990
0.086025
0.068024
0.062010
0.052013
0.024016
-0.001991
0.006989
0.034987
0.047990
0.045024
0.044008
0.039010
0.023000
0.011987
0.019993
0.039010
0.049006
0.037019
0.009996
-0.004998
0.003007
0.011012
-0.003007
-0.013003
0.004998
-0.069974
-0.433986
-0.935996
-0.960986
-0.195985
0.735013
0.963018
0.463000
-0.106993
-0.333007
-0.310007
-0.249989
-0.213011
-0.169003
-0.103011
-0.044008
-0.013003
-0.001991
-0.004998
-0.018977
-0.011987
0.023000
0.041001
0.022024
0.001991
0.013003
0.036003
0.047015
0.044008
0.029989
0.011012
0.004998
0.023000
0.040026
0.032996
0.019017
0.027023
0.044008
0.039010
0.013003
-0.003007
0.004998
0.017026
0.016010
0.014019
0.026007
0.040026
0.044008
0.039010
0.034012
0.031005
0.031005
0.037019
0.047990
0.057987
0.060018
0.050022
0.037019
0.039010
0.050997
0.047015
0.019993
-0.013979
-0.046975
-0.072981
-0.067983
-0.037994
-0.036978
-0.073997
-0.070990
0.009996
0.121012
0.201023
0.216993
0.167987
0.114998
0.111991
0.121012
0.091999
0.060018
0.067008
0.091999
0.101995
0.093990
0.083018
0.088016
0.101020
0.096997
0.088016
0.101020
0.119996
0.114998
0.100004
0.101995
0.111016
0.105002
0.078995
0.040026
0.034987
0.073022
-0.034987
-0.479985
-0.963993
-0.814008
0.088992
0.944001
0.991016
0.397008
-0.159982
-0.348977
-0.300011
-0.198992
-0.103011
-0.026007
0.011987
0.023000
0.037019
0.057987
0.072006
0.080986
0.086025
0.075988
0.068999
0.093990
0.131009
0.136007
0.121012
0.119996
0.121012
0.093014
0.057011
0.050022
0.068024
0.075988
0.065017
0.055020
0.063025
0.078020
0.078995
0.068999
0.067008
0.077004
0.080986
0.083993
0.098013
0.106018
0.083018
0.062010
0.078020
0.098013
0.100004
0.110000
0.131009
0.124994
0.093990
