---
Mammal:            mouse
Fs:                1000
Integration_level: electrocardiogram

Channels:

    - type:   electrography
      name:   Data
      unit:   mV
      enable: yes

---

0.152973
0.150053
0.157024
0.165972
0.168987
0.168045
0.171059
0.181985
0.184058
0.162016
0.129048
0.113034
0.118969
0.123019
0.108984
0.092971
0.094007
0.102014
0.103992
0.113976
0.142989
0.168045
0.168987
0.162016
0.163994
0.162016
0.150995
0.146003
0.149017
0.142047
0.128012
0.124997
0.136018
0.145061
0.145061
0.142047
0.137996
0.121041
0.095043
0.079972
0.074038
0.060002
0.053032
0.055010
-0.024962
-0.275992
-0.618958
-0.817993
-0.665019
-0.193006
0.275051
0.407018
0.231061
0.064053
0.064053
0.113976
0.098999
0.074038
0.098999
0.141010
0.147039
0.124997
0.111056
0.113976
0.124997
0.137996
0.152031
0.154009
0.139032
0.128012
0.136018
0.154009
0.158060
0.147039
0.137996
0.134982
0.129990
0.126975
0.136018
0.142989
0.128012
0.105970
0.107006
0.123019
0.124055
0.107006
0.095043
0.094007
0.102014
0.115013
0.121041
0.113976
0.105028
0.110020
0.121983
0.134982
0.142989
0.137996
0.121041
0.111056
0.116991
0.124997
0.121983
0.113034
0.108984
0.111056
0.116049
0.118969
0.118969
0.118969
0.120005
0.118027
0.111056
0.105970
0.108984
0.108984
0.089015
0.061981
0.061981
0.090993
0.121041
0.137054
0.142047
0.136018
0.124055
0.120005
0.124997
0.123019
0.115013
0.118027
0.136018
0.157024
0.163994
0.147039
0.124055
0.118027
0.126975
0.128012
0.120005
0.111056
0.098999
0.092029
0.111998
0.121041
0.004992
-0.271942
-0.585989
-0.751020
-0.639021
-0.246980
0.207041
0.412011
0.301048
0.111056
0.040033
0.056046
0.071023
0.092029
0.134982
0.165972
0.150995
0.116049
0.110020
0.136018
0.152973
0.134982
0.111056
0.113034
0.133004
0.142989
0.137996
0.134040
0.131026
0.120005
0.110020
0.116991
0.129990
0.120005
0.086000
0.073001
0.108042
0.150995
0.145061
0.102014
0.082986
0.098999
0.111998
0.107006
0.108042
0.126033
0.136018
0.121041
0.090051
0.069987
0.077994
0.102014
0.120005
0.126033
0.124055
0.121041
0.129990
0.145061
0.146003
0.131026
0.116991
0.111998
0.111998
0.116991
0.121983
0.123019
0.124997
0.128012
0.124997
0.113976
0.108042
0.116991
0.129048
0.131026
0.128012
0.124997
0.126033
0.124997
0.120005
0.110020
0.098999
0.086000
0.064995
0.046062
0.059061
0.103050
0.139974
0.142989
0.132062
0.128012
0.118027
0.090051
0.066973
0.079030
0.111056
0.129990
0.128012
0.121983
0.121983
0.120005
0.110020
0.094007
0.081008
0.081008
0.097021
0.115013
0.111998
0.094007
0.095043
0.113034
0.072059
-0.107948
-0.405982
-0.678960
-0.731992
-0.456000
0.012999
0.352008
0.368021
0.185000
0.051054
0.038055
0.053974
0.046062
0.035983
0.030990
0.019969
0.025998
0.059061
0.082044
0.074038
0.073001
0.105970
0.134982
0.123019
0.095985
0.095043
0.108042
0.103050
0.084022
0.077052
0.077052
0.074038
0.074038
0.074980
0.063017
0.046062
0.048982
0.064995
0.066973
0.051054
0.043047
0.045025
0.046062
0.047003
0.053974
0.058024
0.053032
0.053032
0.061039
0.064053
0.064053
0.068009
0.073001
0.066973
0.059061
0.055010
0.048040
0.035983
0.040975
0.069987
0.089015
0.072059
0.043989
0.048982
0.079972
0.095985
0.082044
0.064053
0.058024
0.059061
0.058024
0.053974
0.051996
0.058024
0.066031
0.059061
0.032968
0.014977
0.019969
0.025998
0.024020
0.032026
0.059061
0.079972
0.079972
0.077052
0.074980
0.066973
0.056046
0.060002
0.069987
0.072059
0.066973
0.061981
0.055010
0.053974
0.069045
0.086000
0.079972
0.056046
0.035983
0.035983
0.051996
0.066973
0.082044
0.111998
0.115013
-0.009985
-0.279949
-0.572990
-0.720029
-0.590982
-0.185000
0.258001
0.421053
0.277029
0.089015
0.040975
0.082986
0.120005
0.128012
0.118027
0.098999
0.084022
0.085058
0.102014
0.124055
0.137996
0.137996
0.129990
0.123019
0.124055
0.129990
0.133004
0.126033
0.113976
0.111998
0.124055
0.129990
0.116049
0.095985
0.098999
0.118969
0.123019
0.110020
0.103050
0.100035
0.086000
0.068009
0.053974
0.032026
-0.006029
-0.043989
-0.056988
-0.043989
-0.027976
-0.025998
-0.012999
0.025056
0.046062
0.019027
-0.006970
0.011021
0.038055
0.048982
0.069045
0.090993
0.074038
0.032968
0.019969
0.032968
0.035983
0.035983
0.053032
0.060002
0.038055
0.025056
0.053974
0.087037
0.074038
0.032026
0.009043
0.006029
-0.013941
-0.050018
-0.048982
0.014035
0.092971
0.129048
0.120005
0.102014
0.095985
0.086000
0.056988
0.032026
0.055010
0.107006
0.116991
0.084022
0.072059
0.089015
0.086000
0.073001
0.085058
0.100977
0.087037
0.066973
0.069987
0.079030
0.081008
0.064995
-0.038997
-0.297940
-0.634971
-0.837020
-0.722008
-0.297940
0.186978
0.412011
0.309997
0.118969
0.048040
0.071023
0.082986
0.079030
0.092029
0.105970
0.092029
0.059061
0.035983
0.032968
0.022042
-0.016013
-0.052938
-0.043989
0.001978
0.038997
0.066973
0.110020
0.146003
0.142989
0.116049
0.087037
0.056046
0.035983
0.040033
0.047003
0.040975
0.038055
0.048982
0.053032
0.047003
0.043989
0.047003
0.048982
0.050018
0.055010
0.066973
0.077994
0.072059
0.064995
0.079030
0.100035
0.085058
0.043047
0.027034
0.050018
0.066973
0.064053
0.077052
0.111998
0.121983
0.087037
0.048040
0.040975
0.058024
0.069045
0.066031
0.071023
0.098999
0.118969
0.100035
0.051996
0.008007
-0.011963
0.000000
0.042011
0.086000
0.103050
0.098999
0.100035
0.107006
0.102014
0.081008
0.064995
0.069045
0.082044
0.087037
0.084022
0.074038
0.060002
0.051054
0.060002
0.077994
0.090051
0.090993
0.086000
0.071023
0.050018
0.029012
-0.047003
-0.275992
-0.655977
-0.993950
-1.032005
-0.668976
-0.102956
0.282021
0.282021
0.084022
-0.026940
-0.011963
0.019969
0.043047
0.072059
0.074038
0.048040
0.035041
0.047003
0.059061
0.064995
0.074980
0.087037
0.098999
0.111998
0.120005
0.113976
0.103050
0.098999
0.098057
0.087978
0.081008
0.090993
0.111998
0.116991
0.092029
0.064053
0.066973
0.087978
0.082044
0.051054
0.032968
0.040975
0.059061
0.081008
0.103992
0.110020
0.087037
0.051054
0.030990
0.038055
0.056046
0.071023
0.092029
0.113976
0.103992
0.074038
0.077052
0.103050
0.097021
0.068009
0.056988
0.055010
0.042011
0.032968
0.037019
0.040033
0.022042
-0.019969
-0.052938
-0.032026
0.024020
0.059061
0.066031
0.073001
0.077994
0.079030
0.085058
0.074980
0.040975
0.022984
0.035983
0.045025
0.032026
0.029012
0.043047
0.048982
0.038055
0.027034
0.022984
0.022042
0.016013
0.004050
-0.000942
-0.000942
-0.082986
-0.357942
-0.777960
-1.103970
-1.090029
-0.686967
-0.118027
0.251973
0.236054
0.011021
-0.123961
-0.087978
-0.004992
0.025998
0.012057
-0.003956
0.001036
0.019027
0.029012
0.025056
0.019969
0.025056
0.037019
0.051996
0.063017
0.055010
0.030990
0.024020
0.045025
0.066031
0.061039
0.042011
0.025056
0.014035
0.012999
0.019027
0.019027
0.006970
-0.000942
0.004050
0.009043
0.008007
0.003014
-0.004992
-0.008949
0.004050
0.027034
0.032968
0.012057
-0.008949
-0.004992
0.014035
0.027976
0.025998
0.012999
0.001978
0.006970
0.017991
0.017991
0.004992
-0.006970
-0.008949
-0.003014
-0.003014
-0.016955
-0.038997
-0.055952
-0.073943
-0.092029
-0.082986
-0.034946
0.012999
0.019027
0.001978
-0.004992
0.004992
0.016013
0.022984
0.019969
0.006029
-0.003956
0.001036
0.009043
0.004992
-0.004992
-0.006029
0.001978
0.006970
0.004992
-0.000942
-0.008949
-0.021006
-0.024962
-0.017991
-0.073001
-0.308019
-0.709951
-1.046982
-1.041989
-0.641942
-0.094949
0.233981
0.183022
-0.068009
-0.227011
-0.219946
-0.167950
-0.149017
-0.134982
-0.118969
-0.120005
-0.102014
-0.026940
0.051054
0.051054
0.003014
-0.011963
0.001978
-0.008007
-0.030990
-0.022984
-0.012999
-0.042011
-0.069987
-0.048982
-0.013941
-0.024020
-0.052938
-0.045025
-0.008949
0.009043
0.001036
-0.012999
-0.022984
-0.027976
-0.029012
-0.029012
-0.029954
-0.024020
-0.016955
-0.021006
-0.034946
-0.045025
-0.040975
-0.026940
-0.011963
-0.008007
-0.017991
-0.030990
-0.025998
-0.004992
0.001036
-0.025998
-0.053974
-0.045967
-0.016013
-0.003014
-0.013941
-0.024962
-0.021948
-0.016013
-0.022984
-0.047945
-0.074980
-0.087978
-0.089015
-0.079030
-0.055010
-0.019969
0.006970
0.014035
0.009985
0.009043
0.012999
0.008007
-0.009985
-0.019969
-0.013941
-0.003956
-0.003014
-0.003014
-0.000942
-0.001978
-0.004992
-0.001978
0.001036
-0.000942
-0.001978
-0.008007
-0.026940
-0.035983
-0.025998
-0.092971
-0.352950
-0.751020
-1.048960
-0.998942
-0.563948
-0.006029
0.295020
0.220040
0.004050
-0.102956
-0.082986
-0.037961
-0.016955
-0.011021
-0.008007
-0.011021
-0.021006
-0.032026
-0.038997
-0.048982
-0.066031
-0.089015
-0.100977
-0.089015
-0.055010
-0.026940
-0.026940
-0.037961
-0.026940
0.000000
0.012999
0.000000
-0.009985
0.011021
0.043989
0.043047
-0.008007
-0.071965
-0.097963
-0.079972
-0.048982
-0.029012
-0.012999
0.006970
0.029012
0.043989
0.043047
0.025998
0.003014
-0.008007
0.003014
0.021006
0.022042
0.008007
0.004992
0.024020
0.040975
0.035983
0.024020
0.019969
0.022042
0.025056
0.035983
0.047003
0.040975
0.029012
0.040033
0.064995
0.064053
0.038055
0.030990
0.056988
0.076016
0.063017
0.040975
0.029012
0.016013
-0.001978
-0.009985
-0.001978
-0.004992
-0.022984
-0.034005
-0.019027
0.012999
0.048040
0.073001
0.074038
0.055010
0.040975
0.043989
0.045025
0.038055
0.035041
0.043989
0.051996
0.051996
0.051996
0.061039
0.072059
0.064995
0.032026
0.001036
-0.001978
0.006970
0.001978
-0.024020
-0.060002
-0.129990
-0.306983
-0.624986
-0.967952
-1.093985
-0.837962
-0.297940
0.199035
0.373014
0.235017
0.037019
-0.029012
0.012999
0.045025
0.030048
0.012999
0.021006
0.038055
0.042011
0.035041
0.032968
0.043047
0.058024
0.061981
0.053032
0.050018
0.066031
0.082986
0.077994
0.059061
0.051996
0.061039
0.066973
0.061981
0.055010
0.050018
0.043989
0.037019
0.035041
0.042011
0.048040
0.043047
0.030048
0.019027
0.014035
0.016013
0.030990
0.051054
0.055010
0.030990
0.003014
-0.003956
0.006970
0.012999
0.003014
-0.011021
-0.011021
0.006970
0.027976
0.030048
0.009985
-0.003956
0.004992
0.008007
-0.024962
-0.073001
-0.081950
-0.045967
-0.009985
-0.003014
-0.011021
-0.011963
-0.004992
-0.006029
-0.016013
-0.026940
-0.042011
-0.071023
-0.098999
-0.097021
-0.066031
-0.030990
-0.000942
0.022984
0.022984
-0.008007
-0.039939
-0.042011
-0.026940
-0.024962
-0.027976
-0.012999
0.001978
-0.019969
-0.066031
-0.090993
-0.098999
-0.128953
-0.180949
-0.204969
-0.185000
-0.149959
-0.110020
-0.047003
0.004992
-0.068951
-0.345980
-0.756954
-1.095021
-1.116027
-0.707031
-0.081950
0.311033
0.251973
-0.024962
-0.185942
-0.175015
-0.118969
-0.086000
-0.060002
-0.029954
-0.003956
0.006970
0.003014
-0.006970
-0.006970
0.009043
0.030048
0.043047
0.048040
0.040975
0.016013
-0.006970
0.000000
0.025056
0.030048
0.012999
0.001036
-0.004992
-0.016955
-0.016013
0.008007
0.022042
0.012999
0.008007
0.017049
0.017049
-0.001978
-0.019969
-0.021006
-0.008949
0.006970
0.009985
-0.017991
-0.056988
-0.071023
-0.050960
-0.019027
-0.000942
-0.012999
-0.037961
-0.047003
-0.032968
-0.022984
-0.019027
-0.014977
-0.019027
-0.032026
-0.035983
-0.032968
-0.045025
-0.063959
-0.063017
-0.042953
-0.037961
-0.060002
-0.086000
-0.102956
-0.124997
-0.159002
-0.175015
-0.133946
-0.060944
-0.027976
-0.055952
-0.086000
-0.089957
-0.102956
-0.133946
-0.138938
-0.107006
-0.068951
-0.037961
-0.016013
-0.019969
-0.040975
-0.051996
-0.055952
-0.082986
-0.124997
-0.128012
-0.068009
-0.006970
-0.014977
-0.050018
-0.040975
-0.061981
-0.279007
-0.707031
-1.127990
-1.243002
-0.903993
-0.287013
0.193006
0.262993
0.043047
-0.152973
-0.188014
-0.141952
-0.092029
-0.042953
-0.003956
-0.011963
-0.060002
-0.097021
-0.094949
-0.061981
-0.016013
0.014035
0.001978
-0.026940
-0.024962
0.009043
0.019027
-0.011021
-0.029954
-0.011021
0.004992
-0.012999
-0.034946
-0.026940
-0.009985
-0.016955
-0.037961
-0.043989
-0.037961
-0.043989
-0.055010
-0.060002
-0.063017
-0.073943
-0.081008
-0.068951
-0.043989
-0.029954
-0.032968
-0.042011
-0.053974
-0.069987
-0.063017
-0.026940
-0.016955
-0.052938
-0.069987
-0.032968
-0.003014
-0.024962
-0.064995
-0.079030
-0.077994
-0.082986
-0.084022
-0.056988
-0.019969
-0.019969
-0.056988
-0.074980
-0.055010
-0.042011
-0.060002
-0.076958
-0.069987
-0.058966
-0.068951
-0.108984
-0.157966
-0.170965
-0.116991
-0.030990
0.011021
-0.017991
-0.068009
-0.084964
-0.069987
-0.056988
-0.050960
-0.040975
-0.040975
-0.058024
-0.063959
-0.034005
0.006970
0.014035
-0.022984
-0.073943
-0.097021
-0.066031
-0.006970
0.004992
-0.053974
-0.092971
-0.034946
0.027976
-0.089957
-0.452986
-0.912942
-1.199955
-1.058002
-0.491982
0.116991
0.343060
0.186978
-0.003956
-0.030990
0.000000
-0.026940
-0.066031
-0.043989
0.012999
0.038055
0.012057
-0.030990
-0.047945
-0.030990
-0.009985
-0.004992
0.004050
0.038055
0.077994
0.081008
0.038055
-0.012999
-0.026940
-0.006029
0.025998
0.056046
0.069987
0.038055
-0.024962
-0.052938
-0.016955
0.030048
0.029012
-0.021948
-0.058024
-0.026940
0.029012
0.027976
-0.024962
-0.037019
0.019969
0.058024
0.024020
-0.008007
0.030990
0.082986
0.068009
0.027034
0.055010
0.118027
0.111056
0.040033
0.017991
0.069045
0.103050
0.087037
0.095043
0.144025
0.145061
0.074980
0.066973
0.183022
0.254045
0.142047
-0.000942
0.027976
0.150995
0.178971
0.121983
0.116049
0.158060
0.147981
0.092971
0.081008
0.111056
0.105028
0.064053
0.051054
0.055010
0.019027
-0.012999
0.056988
0.171059
0.168045
0.053032
-0.003956
0.043047
0.069987
0.032968
0.035983
0.142047
0.267986
0.296056
0.199977
0.073001
0.016013
0.014035
0.016013
0.055010
0.152973
0.197999
0.108042
-0.000942
0.004050
0.074980
0.100035
0.035983
-0.162958
-0.545956
-0.980009
-1.135996
-0.793031
-0.120947
0.405040
0.470977
0.238032
0.064053
0.051054
0.066973
0.056046
0.059061
0.073001
0.074980
0.071023
0.043989
-0.027976
-0.061981
0.027976
0.158060
0.178029
0.098057
0.038997
0.042011
0.081008
0.141010
0.197057
0.197057
0.141010
0.092971
0.094007
0.128012
0.155988
0.154009
0.124997
0.100035
0.113034
0.141010
0.142989
0.126975
0.133004
0.150053
0.131026
0.082044
0.071023
0.120005
0.168045
0.163994
0.126975
0.103992
0.115013
0.150053
0.181985
0.168045
0.084022
-0.024962
-0.066973
-0.012999
0.074038
0.118027
0.095043
0.030048
-0.013941
0.016013
0.086000
0.105970
0.066031
0.027976
0.006029
-0.034005
-0.089957
-0.099941
-0.009985
0.115013
0.129048
0.004050
-0.102956
-0.097963
-0.084022
-0.121983
-0.094007
0.056046
0.160980
0.100035
-0.012999
-0.034946
0.006970
0.032026
0.034005
0.038997
0.056988
0.108042
0.170023
0.172001
0.121983
0.100035
0.089015
0.022042
-0.016013
0.092029
0.223055
0.181985
0.035041
-0.021006
-0.008949
-0.090993
-0.303968
-0.579019
-0.767975
-0.613024
-0.063959
0.446015
0.491041
0.236996
0.103992
0.139032
0.147039
0.105970
0.102014
0.097021
0.030990
-0.032968
-0.001978
0.107006
0.189992
0.163052
0.051054
-0.045025
-0.063017
-0.025998
0.038055
0.123019
0.191028
0.186978
0.121041
0.053032
0.011021
-0.022984
-0.042011
0.006970
0.113034
0.173037
0.113034
-0.012999
-0.102014
-0.103992
-0.032968
0.058024
0.100035
0.076016
0.022042
-0.024020
-0.038997
-0.013941
0.025998
0.051054
0.072059
0.092971
0.079030
0.032026
0.012999
0.043989
0.064995
0.043047
0.022984
0.030048
0.025998
-0.004992
-0.009985
0.037019
0.077994
0.063017
0.025056
0.025998
0.074038
0.110020
0.056988
-0.052938
-0.076958
0.030990
0.102014
0.014035
-0.094007
-0.055952
0.043047
0.038055
-0.037961
-0.030990
0.061039
0.103050
0.045025
-0.011963
0.004050
0.021006
-0.025998
-0.069987
-0.029012
0.051996
0.066031
0.009043
-0.030990
-0.003014
0.040975
0.022042
-0.048982
-0.066031
-0.019969
-0.097963
-0.433958
-0.848983
-0.972002
-0.613024
-0.014977
0.342023
0.279007
0.100035
0.086000
0.132062
0.090051
0.053032
0.087978
0.077052
-0.008949
-0.022984
0.079972
0.152973
0.103050
0.021006
0.016013
0.069987
0.115013
0.116991
0.077052
0.027976
0.032968
0.081008
0.077994
0.006029
-0.024962
0.027976
0.058024
0.006029
-0.035983
-0.011021
-0.003014
-0.081950
-0.183022
-0.211940
-0.154951
-0.055952
0.029012
0.043047
-0.011963
-0.050018
-0.012999
0.038055
0.017991
-0.040975
-0.051996
-0.024020
-0.027976
-0.042953
-0.012999
0.014977
-0.016013
-0.045025
-0.025998
-0.034946
-0.099941
-0.115955
-0.052938
-0.019969
-0.045025
-0.032968
0.021006
0.012999
-0.064995
-0.102956
-0.081008
-0.068009
-0.064995
-0.014977
0.056988
0.079972
0.072059
0.089015
0.092971
0.027976
-0.037019
0.012057
0.121041
0.129048
0.009043
-0.084022
-0.035983
0.074980
0.090051
0.006029
-0.013941
0.081008
0.108984
-0.013941
-0.079030
0.034005
0.079972
-0.178029
-0.619994
-0.942990
-0.925941
-0.514966
0.068009
0.417003
0.365007
0.150995
0.035983
0.022042
0.017991
0.001978
-0.024962
-0.045025
-0.024962
0.012057
0.014035
-0.000942
0.019969
0.047003
0.022984
-0.025998
-0.026940
0.011021
0.019027
-0.012999
-0.022984
0.009043
0.019969
-0.029954
-0.089015
-0.086000
-0.022984
0.030990
0.035983
0.011021
-0.019969
-0.050018
-0.042953
0.027034
0.089015
0.043989
-0.071965
-0.125939
-0.063017
0.030990
0.043989
-0.030990
-0.079972
-0.016013
0.077052
0.046062
-0.079972
-0.129990
-0.071023
-0.027976
-0.037019
-0.026940
-0.011963
-0.047003
-0.071965
-0.017991
0.038997
0.017991
-0.034005
-0.063017
-0.094949
-0.123961
-0.089957
-0.001978
0.058024
0.043989
-0.019027
-0.079972
-0.105970
-0.079972
-0.030990
-0.022984
-0.068951
-0.076958
-0.003956
0.040033
-0.013941
-0.060002
-0.032026
-0.008007
-0.026940
-0.032968
-0.025998
-0.060002
-0.128012
-0.147981
-0.081950
-0.034946
-0.191970
-0.582975
-0.949018
-0.934983
-0.464948
0.102014
0.352008
0.270058
0.116991
0.012999
-0.060002
-0.037961
0.097021
0.188014
0.124997
0.022984
0.029012
0.111056
0.124055
0.027976
-0.048982
0.012999
0.146003
0.191970
0.129990
0.066031
0.046062
0.017049
-0.034005
-0.055010
-0.034005
-0.009985
0.024020
0.081008
0.090051
0.008007
-0.063017
-0.035983
-0.008949
-0.063017
-0.077994
0.016013
0.063017
-0.035983
-0.120947
-0.066031
-0.001978
-0.040975
-0.090993
-0.071965
-0.050960
-0.076958
-0.105028
-0.115955
-0.129990
-0.133004
-0.110962
-0.097021
-0.099941
-0.073001
-0.011963
0.006029
-0.068951
-0.181985
-0.240952
-0.212976
-0.139974
-0.095985
-0.107006
-0.111998
-0.058024
-0.017991
-0.076958
-0.139974
-0.073001
0.048040
0.069045
0.019969
0.004992
-0.009985
-0.068009
-0.089015
-0.013941
0.056046
0.012999
-0.086942
-0.108984
-0.024962
0.051996
0.022984
-0.079030
-0.126975
-0.064995
-0.019969
-0.168987
-0.490004
-0.759026
-0.774945
-0.485012
-0.024020
0.296056
0.259037
0.030048
-0.077994
-0.038997
-0.034005
-0.092971
-0.102956
-0.039939
0.003014
-0.022984
-0.074980
-0.092029
-0.073943
-0.048982
-0.035983
-0.030990
-0.029954
-0.035983
-0.048982
-0.056988
-0.055952
-0.053974
-0.051996
-0.040975
-0.037019
-0.050018
-0.045025
0.008007
0.053974
0.022984
-0.076016
-0.183964
-0.256965
-0.266950
-0.224939
-0.191028
-0.199977
-0.201013
-0.152031
-0.086000
-0.048982
-0.034005
-0.032026
-0.056988
-0.086942
-0.086000
-0.086000
-0.128953
-0.167008
-0.123961
-0.048982
-0.051996
-0.125939
-0.159944
-0.124997
-0.095985
-0.105028
-0.121983
-0.139974
-0.168987
-0.185000
-0.175957
-0.172943
-0.178029
-0.147981
-0.084022
-0.045025
-0.055952
-0.082986
-0.089015
-0.079030
-0.073001
-0.071023
-0.045025
-0.001978
-0.008949
-0.079030
-0.129990
-0.111998
-0.086000
-0.092971
-0.084964
-0.039939
-0.006970
-0.016955
-0.068009
-0.201013
-0.477005
-0.834006
-1.037939
-0.837020
-0.249995
0.331003
0.488968
0.245002
-0.022984
-0.092971
-0.063017
-0.055010
-0.056988
-0.061981
-0.097021
-0.125939
-0.098999
-0.048982
-0.029012
-0.039939
-0.047003
-0.024962
0.012999
0.022984
0.001978
-0.003014
0.014977
0.001978
-0.042953
-0.064995
-0.056988
-0.063017
-0.076958
-0.064995
-0.034005
-0.004992
0.006970
-0.025998
-0.089957
-0.112940
-0.082986
-0.069987
-0.082986
-0.079030
-0.069987
-0.081950
-0.082986
-0.063017
-0.076958
-0.141952
-0.191028
-0.168987
-0.107948
-0.076016
-0.094949
-0.139974
-0.189992
-0.227953
-0.245944
-0.254987
-0.253009
-0.209020
-0.144025
-0.141010
-0.207983
-0.248958
-0.215990
-0.178971
-0.163994
-0.111998
-0.022984
0.004992
-0.058966
-0.129990
-0.141952
-0.110962
-0.073943
-0.063017
-0.089015
-0.110020
-0.076016
-0.037019
-0.071023
-0.136018
-0.146945
-0.128012
-0.129990
-0.115013
-0.056988
-0.022984
-0.055952
-0.116991
-0.219946
-0.456000
-0.800001
-0.998942
-0.787944
-0.214012
0.330061
0.473049
0.251031
-0.003014
-0.077994
-0.050018
-0.048982
-0.084022
-0.102956
-0.102014
-0.100977
-0.098999
-0.079030
-0.042011
-0.014977
-0.026940
-0.081950
-0.128012
-0.103992
-0.019027
0.040975
0.017049
-0.038997
-0.042953
-0.003014
0.011021
-0.017991
-0.055010
-0.066031
-0.034005
0.012057
0.001978
-0.079030
-0.139974
-0.126975
-0.094949
-0.094007
-0.098999
-0.098999
-0.110962
-0.120947
-0.105970
-0.086000
-0.081008
-0.079972
-0.076016
-0.076016
-0.084022
-0.120947
-0.170965
-0.172001
-0.138938
-0.149959
-0.185942
-0.162016
-0.105028
-0.097021
-0.128953
-0.157966
-0.188956
-0.212976
-0.193948
-0.141952
-0.102014
-0.089957
-0.102956
-0.131026
-0.144967
-0.118027
-0.079972
-0.081008
-0.115955
-0.128012
-0.112940
-0.120005
-0.149017
-0.142989
-0.100977
-0.092029
-0.131026
-0.136960
-0.077994
-0.045025
-0.095985
-0.150995
-0.136018
-0.141010
-0.295020
-0.551985
-0.735007
-0.696952
-0.413989
-0.006970
0.280043
0.272978
0.061981
-0.118969
-0.163994
-0.144025
-0.154009
-0.207983
-0.248016
-0.202991
-0.107006
-0.074980
-0.107948
-0.087978
-0.006970
0.009985
-0.045025
-0.048982
0.011021
0.017991
-0.058024
-0.110962
-0.081008
-0.016013
0.012999
-0.019027
-0.074980
-0.108984
-0.120947
-0.128012
-0.112940
-0.064995
-0.039939
-0.073943
-0.103992
-0.071023
-0.039939
-0.092029
-0.167008
-0.159944
-0.120947
-0.149959
-0.197999
-0.172001
-0.105970
-0.068951
-0.050018
-0.053974
-0.115013
-0.180007
-0.159944
-0.084022
-0.060944
-0.125939
-0.201013
-0.206005
-0.178029
-0.193948
-0.238032
-0.232003
-0.172001
-0.116991
-0.092029
-0.086000
-0.108984
-0.160980
-0.193948
-0.165972
-0.110020
-0.076958
-0.068951
-0.076016
-0.105970
-0.146003
-0.172943
-0.176993
-0.142989
-0.068951
-0.038997
-0.118969
-0.202991
-0.146945
-0.014977
0.022042
-0.066031
-0.204027
-0.397975
-0.660969
-0.825999
-0.665961
-0.209961
0.204969
0.298034
0.126975
-0.022984
0.004992
0.092029
0.058024
-0.071023
-0.136018
-0.102956
-0.079972
-0.097963
-0.087978
-0.040975
-0.021948
-0.042953
-0.061981
-0.071965
-0.089015
-0.103992
-0.097021
-0.079030
-0.061981
-0.045025
-0.034946
-0.047003
-0.074980
-0.090993
-0.102014
-0.131968
-0.154951
-0.131968
-0.090993
-0.097021
-0.136018
-0.133004
-0.081950
-0.063017
-0.120947
-0.189992
-0.189992
-0.138938
-0.108984
-0.121983
-0.149017
-0.172001
-0.183964
-0.172943
-0.154951
-0.165030
-0.185000
-0.180949
-0.162958
-0.142989
-0.108984
-0.102956
-0.173979
-0.266008
-0.287013
-0.248016
-0.211940
-0.170023
-0.110020
-0.094949
-0.155988
-0.219004
-0.219946
-0.188014
-0.168987
-0.165030
-0.162958
-0.159002
-0.157966
-0.173979
-0.206947
-0.209020
-0.146003
-0.084022
-0.110962
-0.199977
-0.240010
-0.201013
-0.147981
-0.129990
-0.160980
-0.287013
-0.548029
-0.868952
-1.048018
-0.890994
-0.425010
0.051054
0.212034
0.056988
-0.123019
-0.141952
-0.105028
-0.142989
-0.209961
-0.225975
-0.209961
-0.207983
-0.211940
-0.206947
-0.199977
-0.193948
-0.180949
-0.165030
-0.170965
-0.212976
-0.256023
-0.248958
-0.196021
-0.149017
-0.142989
-0.168987
-0.199977
-0.215990
-0.210998
-0.196021
-0.191970
-0.209020
-0.240010
-0.256023
-0.246980
-0.238974
-0.261015
-0.290970
-0.290970
-0.279949
-0.287955
-0.300012
-0.297940
-0.295020
-0.279949
-0.222019
-0.159944
-0.170023
-0.230967
-0.254987
-0.228989
-0.206947
-0.206947
-0.201013
-0.198941
-0.235959
-0.290970
-0.308961
-0.290970
-0.283999
-0.287955
-0.258943
-0.204027
-0.173979
-0.191028
-0.219004
-0.220982
-0.186978
-0.146003
-0.141952
-0.175957
-0.194984
-0.163994
-0.125939
-0.125939
-0.144025
-0.146003
-0.144025
-0.160980
-0.178029
-0.167950
-0.144967
-0.146945
-0.167008
-0.172001
-0.204027
-0.368963
-0.652962
-0.886002
-0.902015
-0.660969
-0.258943
0.076016
0.142047
-0.019027
-0.175957
-0.198941
-0.149017
-0.120947
-0.131968
-0.150995
-0.157966
-0.162016
-0.175015
-0.185000
-0.170965
-0.137996
-0.113976
-0.111998
-0.123019
-0.136960
-0.152973
-0.160980
-0.144967
-0.110020
-0.089015
-0.099941
-0.126975
-0.144025
-0.147981
-0.152031
-0.157024
-0.149017
-0.128953
-0.118969
-0.129990
-0.149959
-0.167950
-0.183964
-0.189992
-0.175015
-0.149017
-0.128012
-0.120947
-0.138938
-0.170023
-0.175957
-0.146945
-0.121983
-0.124997
-0.133946
-0.134982
-0.133946
-0.134982
-0.137996
-0.152973
-0.173979
-0.178029
-0.173979
-0.191028
-0.207983
-0.178971
-0.126975
-0.112940
-0.133946
-0.141010
-0.129990
-0.129990
-0.138938
-0.139974
-0.144967
-0.155988
-0.152031
-0.136018
-0.136018
-0.152973
-0.159002
-0.144967
-0.128953
-0.115955
-0.110962
-0.126975
-0.157966
-0.162958
-0.136960
-0.165030
-0.366985
-0.733970
-1.058944
-1.066009
-0.668976
-0.128012
0.168045
0.103992
-0.090993
-0.196021
-0.206005
-0.193948
-0.170965
-0.136960
-0.120947
-0.126975
-0.137996
-0.141010
-0.128012
-0.110020
-0.100977
-0.099941
-0.092971
-0.087978
-0.105970
-0.133004
-0.134982
-0.116991
-0.110020
-0.112940
-0.111998
-0.112940
-0.123961
-0.129990
-0.120005
-0.111998
-0.124997
-0.144967
-0.138938
-0.110962
-0.107006
-0.134982
-0.147981
-0.128953
-0.120947
-0.133004
-0.131026
-0.110962
-0.108984
-0.125939
-0.136018
-0.133004
-0.129990
-0.123961
-0.111998
-0.107948
-0.124997
-0.146945
-0.152973
-0.144967
-0.150995
-0.183022
-0.217968
-0.214954
-0.165972
-0.110020
-0.090993
-0.110020
-0.128953
-0.124997
-0.108984
-0.102956
-0.107948
-0.113976
-0.120005
-0.124997
-0.126975
-0.126975
-0.131026
-0.134982
-0.128953
-0.115955
-0.110962
-0.115013
-0.120947
-0.131968
-0.139974
-0.134982
-0.191028
-0.408996
-0.738963
-0.965974
-0.905029
-0.556977
-0.115013
0.147039
0.105028
-0.089957
-0.201955
-0.178971
-0.128953
-0.116991
-0.118027
-0.113976
-0.123019
-0.141952
-0.146003
-0.141952
-0.142989
-0.144025
-0.141952
-0.154951
-0.186978
-0.225975
-0.262993
-0.271942
-0.210998
-0.110020
-0.052938
-0.063959
-0.092971
-0.111998
-0.133004
-0.146945
-0.139974
-0.121983
-0.112940
-0.115955
-0.128012
-0.139974
-0.134982
-0.118027
-0.120947
-0.149017
-0.165972
-0.152031
-0.131968
-0.129990
-0.137996
-0.139974
-0.137996
-0.133946
-0.123961
-0.112940
-0.113976
-0.129990
-0.142989
-0.139974
-0.128012
-0.123019
-0.133004
-0.149959
-0.162016
-0.167950
-0.178971
-0.197999
-0.209020
-0.191970
-0.146945
-0.099941
-0.079972
-0.094007
-0.115955
-0.115955
-0.099941
-0.094949
-0.107006
-0.116991
-0.112940
-0.112940
-0.123019
-0.121983
-0.098999
-0.081008
-0.087978
-0.099941
-0.089015
-0.071023
-0.084964
-0.123961
-0.133946
-0.110020
-0.144967
-0.344943
-0.662947
-0.900979
-0.881009
-0.587026
-0.159944
0.163994
0.199035
0.016013
-0.134982
-0.141010
-0.105028
-0.107006
-0.108984
-0.081950
-0.066973
-0.089015
-0.110020
-0.094007
-0.055010
-0.032026
-0.035983
-0.052938
-0.069987
-0.077994
-0.073943
-0.066031
-0.063017
-0.066973
-0.071023
-0.076016
-0.073001
-0.064995
-0.071965
-0.090993
-0.098999
-0.094949
-0.098999
-0.113976
-0.121983
-0.118969
-0.115955
-0.126975
-0.154009
-0.173979
-0.162958
-0.134982
-0.133004
-0.163994
-0.180949
-0.154009
-0.110962
-0.084964
-0.069987
-0.055952
-0.051996
-0.068951
-0.086000
-0.071023
-0.037019
-0.035983
-0.074980
-0.105028
-0.103992
-0.105028
-0.115013
-0.110020
-0.086942
-0.073001
-0.073943
-0.092029
-0.125939
-0.157024
-0.150995
-0.098999
-0.042011
-0.025998
-0.050018
-0.071023
-0.063017
-0.047003
-0.045967
-0.050960
-0.048982
-0.045967
-0.047945
-0.051996
-0.058024
-0.064995
-0.068951
-0.066031
-0.061981
-0.063017
-0.061981
-0.055952
-0.050960
-0.042953
-0.035983
-0.098999
-0.318946
-0.660027
-0.939976
-0.960981
-0.657013
-0.165030
0.207041
0.236054
0.022042
-0.154009
-0.165972
-0.108984
-0.079030
-0.081008
-0.084964
-0.084022
-0.084022
-0.079030
-0.064995
-0.051996
-0.047945
-0.052938
-0.063959
-0.068951
-0.047945
-0.021948
-0.037019
-0.068951
-0.058966
-0.032026
-0.045025
-0.076016
-0.073001
-0.050018
-0.048982
-0.076016
-0.107948
-0.120005
-0.107006
-0.099941
-0.118027
-0.133004
-0.128012
-0.137996
-0.172001
-0.167008
-0.092029
-0.019027
-0.024962
-0.081008
-0.110020
-0.084022
-0.048982
-0.051996
-0.081008
-0.073943
-0.032026
-0.024962
-0.081008
-0.123961
-0.094949
-0.050018
-0.063959
-0.116991
-0.136018
-0.097021
-0.045025
-0.026940
-0.051996
-0.090993
-0.112940
-0.112940
-0.094949
-0.063959
-0.037019
-0.027976
-0.024020
-0.009985
0.001036
-0.006029
-0.027976
-0.055952
-0.068951
-0.047003
-0.011963
-0.004992
-0.019027
-0.017991
-0.011021
-0.034946
-0.077994
-0.084964
-0.052938
-0.029954
-0.026940
-0.016013
-0.051996
-0.269022
-0.665019
-0.998000
-0.998942
-0.615944
-0.079030
0.264030
0.240010
0.016013
-0.131968
-0.133004
-0.094949
-0.079972
-0.064995
-0.035983
-0.014977
-0.014977
-0.022984
-0.021948
-0.009985
0.004992
0.017991
0.022042
0.008007
-0.011021
-0.011021
0.000000
-0.004992
-0.024962
-0.034005
-0.027976
-0.029012
-0.043989
-0.068951
-0.100977
-0.128012
-0.138938
-0.138938
-0.139974
-0.123019
-0.076958
-0.030990
-0.026940
-0.052938
-0.066973
-0.043989
-0.014977
-0.012999
-0.021006
-0.016955
-0.019969
-0.048982
-0.069987
-0.058024
-0.035983
-0.030990
-0.040975
-0.048982
-0.047003
-0.039939
-0.048982
-0.068951
-0.069987
-0.040975
-0.008949
-0.001978
-0.026940
-0.071965
-0.107006
-0.094949
-0.042953
0.001036
0.004992
-0.009985
-0.016955
-0.014977
-0.014977
-0.009985
0.004992
0.019027
0.017991
0.008007
0.004050
0.004050
-0.000942
-0.009985
-0.011963
-0.008949
-0.009985
-0.011963
-0.004992
0.017991
0.027034
-0.063017
-0.334959
-0.738021
-1.038975
-0.978031
-0.514966
0.048982
0.318004
0.215990
0.009043
-0.089015
-0.110020
-0.129990
-0.133004
-0.102014
-0.056988
-0.008949
0.022984
-0.006970
-0.081008
-0.112940
-0.081950
-0.055952
-0.064995
-0.071965
-0.058966
-0.035983
-0.011963
-0.003014
-0.011963
-0.009985
0.001978
-0.014977
-0.056988
-0.073001
-0.051996
-0.026940
-0.022984
-0.042011
-0.063017
-0.060002
-0.037961
-0.035983
-0.060002
-0.066031
-0.026940
0.021006
0.027034
-0.008949
-0.042011
-0.045025
-0.034946
-0.040975
-0.068009
-0.102014
-0.123019
-0.121983
-0.108984
-0.097963
-0.086000
-0.058966
-0.027976
-0.019969
-0.032026
-0.045025
-0.064995
-0.086000
-0.079030
-0.035983
0.000000
0.009043
0.001036
-0.014977
-0.017991
0.009043
0.043989
0.051996
0.047003
0.045025
0.034005
0.014035
0.009043
0.022984
0.034005
0.027034
0.011021
0.009985
0.035041
0.061039
0.059061
0.043047
0.030990
-0.050018
-0.301990
-0.688945
-0.967952
-0.873945
-0.389027
0.165972
0.397034
0.236996
-0.016955
-0.102014
-0.048982
0.006029
0.030990
0.050018
0.056046
0.043989
0.038997
0.050018
0.066031
0.089015
0.111998
0.108984
0.085058
0.082044
0.108984
0.121041
0.103050
0.087037
0.092029
0.103992
0.100977
0.084022
0.069987
0.066973
0.072059
0.074038
0.066973
0.055010
0.050018
0.056046
0.060002
0.058024
0.064995
0.079030
0.074038
0.053974
0.051996
0.072059
0.086000
0.077994
0.060002
0.055010
0.069045
0.082986
0.069045
0.040975
0.035983
0.056046
0.069987
0.066031
0.053032
0.035041
0.009043
-0.021948
-0.064995
-0.115013
-0.144025
-0.124997
-0.077994
-0.032026
0.009043
0.043989
0.059061
0.063017
0.087037
0.116991
0.100977
0.038055
-0.011021
-0.004992
0.029012
0.053032
0.064995
0.079030
0.089015
0.081008
0.066031
0.061039
0.060002
0.063017
0.079030
0.073001
-0.066031
-0.395997
-0.787002
-0.975958
-0.772967
-0.248016
0.257059
0.408996
0.220982
0.004992
-0.034005
0.022984
0.048982
0.045025
0.061039
0.086000
0.094007
0.092971
0.103050
0.118027
0.128012
0.128012
0.124055
0.124055
0.132062
0.141010
0.147039
0.146003
0.137996
0.126975
0.124055
0.134040
0.142989
0.139032
0.126975
0.121041
0.124055
0.128012
0.124055
0.108042
0.089015
0.079972
0.086000
0.100977
0.113976
0.116991
0.110020
0.103992
0.105028
0.110020
0.111056
0.108984
0.107006
0.105028
0.105028
0.111056
0.118027
0.115013
0.103050
0.097021
0.103050
0.105970
0.098999
0.085058
0.061039
0.022984
-0.008007
-0.008949
0.011021
0.021006
0.008007
-0.016013
-0.027976
-0.021006
0.003014
0.038055
0.084022
0.134040
0.162016
0.147981
0.100977
0.066973
0.079030
0.110020
0.100977
0.060002
0.056046
0.100035
0.110020
0.050018
0.001978
-0.004992
-0.090993
-0.365007
-0.725964
-0.899943
-0.673968
-0.144025
0.306983
0.394019
0.222019
0.066973
0.035041
0.056046
0.074038
0.089015
0.103050
0.113034
0.116991
0.116991
0.123019
0.136018
0.142989
0.146003
0.158060
0.178029
0.186036
0.172001
0.147981
0.139974
0.150053
0.159002
0.154009
0.147039
0.142047
0.137054
0.134040
0.134982
0.132062
0.128012
0.129048
0.128012
0.121983
0.124055
0.132062
0.128012
0.115013
0.116991
0.136018
0.150995
0.147981
0.142989
0.146003
0.149017
0.139032
0.124055
0.116991
0.116991
0.116991
0.113034
0.111998
0.108984
0.100977
0.095043
0.095043
0.081008
0.046062
0.030990
0.069987
0.134982
0.170023
0.162016
0.144025
0.136018
0.137054
0.144025
0.154009
0.155988
0.150053
0.150053
0.154009
0.150053
0.142047
0.142047
0.146003
0.137996
0.116049
0.087037
0.055010
0.030048
0.034005
0.063017
0.019027
-0.227011
-0.647028
-0.967952
-0.887980
-0.404004
0.139032
0.391005
0.314989
0.134982
0.035983
0.022984
0.040033
0.074980
0.120005
0.132062
0.103992
0.086000
0.103050
0.123019
0.118027
0.105028
0.111998
0.134040
0.152973
0.160038
0.150053
0.134040
0.136018
0.168045
0.197999
0.193006
0.167008
0.150995
0.150053
0.149017
0.147981
0.150995
0.150053
0.139032
0.131026
0.134040
0.137054
0.124997
0.113976
0.128012
0.162016
0.181985
0.168045
0.142047
0.128012
0.132062
0.139032
0.136018
0.132062
0.141010
0.160980
0.175015
0.173037
0.165030
0.160038
0.150053
0.129048
0.100035
0.076016
0.069987
0.089015
0.124055
0.155988
0.170023
0.165030
0.155988
0.152973
0.157024
0.158060
0.150995
0.145061
0.152031
0.163994
0.167008
0.162016
0.155046
0.149017
0.142047
0.136018
0.136018
0.146003
0.152973
0.152031
0.163994
0.150053
-0.008949
-0.342965
-0.675946
-0.775982
-0.548029
-0.102956
0.272036
0.340045
0.155046
-0.035983
-0.100977
-0.073943
-0.016013
0.037019
0.069045
0.095985
0.123019
0.131026
0.121983
0.115013
0.107006
0.100977
0.116049
0.132062
0.108042
0.072059
0.087978
0.137054
0.146003
0.113034
0.108984
0.133004
0.116049
0.053974
0.034005
0.094007
0.160980
0.167008
0.133004
0.113976
0.120005
0.129990
0.134040
0.129048
0.116049
0.105028
0.105028
0.108984
0.116991
0.134982
0.150053
0.139032
0.120005
0.124997
0.137996
0.128012
0.107006
0.100035
0.108042
0.121041
0.142047
0.162016
0.160980
0.142989
0.129048
0.129048
0.113976
0.068009
0.035983
0.066973
0.136018
0.173979
0.162016
0.142047
0.137996
0.139974
0.142047
0.149017
0.158060
0.158060
0.152973
0.142047
0.126975
0.121041
0.139032
0.163994
0.171059
0.163052
0.150995
0.136018
0.126033
0.121983
0.113976
0.081008
-0.034005
-0.303968
-0.683953
-0.938940
-0.832970
-0.376970
0.128012
0.363029
0.280043
0.090993
-0.001978
0.019969
0.087037
0.150995
0.173037
0.133004
0.069987
0.043989
0.060002
0.077052
0.081008
0.094007
0.115013
0.116991
0.094007
0.081008
0.098999
0.126975
0.131026
0.118027
0.113976
0.124055
0.137054
0.146003
0.149017
0.142989
0.132062
0.129048
0.134982
0.141010
0.141010
0.136018
0.129048
0.129048
0.139032
0.149017
0.150995
0.146003
0.144025
0.145061
0.142047
0.136018
0.132062
0.137054
0.155046
0.176993
0.193006
0.197057
0.186978
0.168987
0.150995
0.142989
0.145061
0.147981
0.142047
0.126975
0.111056
0.092029
0.069987
0.066031
0.100035
0.152973
0.189992
0.197999
0.194042
0.184058
0.168987
0.157024
0.155046
0.163052
0.173979
0.178029
0.168987
0.155988
0.152973
0.150995
0.137054
0.115013
0.092029
0.061039
0.025998
0.011021
0.012057
0.006970
-0.024962
-0.144967
-0.428024
-0.793031
-0.941954
-0.634971
-0.027976
0.410032
0.387991
0.120005
-0.021006
0.021006
0.074038
0.082044
0.094007
0.092029
0.074038
0.097021
0.154009
0.163994
0.126033
0.108984
0.136018
0.165972
0.178029
0.178029
0.163052
0.132062
0.111056
0.128012
0.168045
0.188014
0.176051
0.157024
0.150053
0.152973
0.154009
0.147981
0.136018
0.131026
0.139974
0.152031
0.158060
0.160980
0.155046
0.137996
0.123019
0.124997
0.141010
0.152973
0.150053
0.144025
0.150995
0.173037
0.189992
0.188014
0.180007
0.186036
0.194984
0.188014
0.173979
0.176051
0.188014
0.181044
0.155988
0.139032
0.136018
0.128012
0.102014
0.077994
0.090993
0.137996
0.183022
0.204027
0.209020
0.199977
0.173979
0.154009
0.162016
0.186036
0.199035
0.196021
0.184058
0.168987
0.159002
0.163994
0.178971
0.185000
0.173979
0.163994
0.170023
0.168045
0.147981
0.142989
0.155988
0.082986
-0.183022
-0.584011
-0.892972
-0.873945
-0.491982
0.016013
0.311975
0.269022
0.069987
-0.047003
-0.034005
0.012999
0.046062
0.092029
0.142989
0.152031
0.118969
0.090051
0.085058
0.082986
0.077052
0.079030
0.090993
0.111998
0.137996
0.155046
0.152973
0.134982
0.124055
0.134040
0.145061
0.116049
0.069045
0.074980
0.128012
0.142047
0.105028
0.095043
0.124055
0.139974
0.136018
0.142989
0.154009
0.152031
0.142047
0.134982
0.131026
0.136018
0.155988
0.175015
0.175015
0.168045
0.168987
0.168045
0.158060
0.157024
0.176051
0.191028
0.178029
0.155046
0.147039
0.146003
0.139032
0.134040
0.132062
0.121041
0.095985
0.072059
0.064995
0.087037
0.134982
0.184058
0.197999
0.184058
0.176051
0.186978
0.194984
0.194984
0.204027
0.215048
0.207983
0.189992
0.183022
0.181985
0.170023
0.152973
0.147039
0.158060
0.170023
0.173979
0.163994
0.142989
0.128012
0.124997
0.060002
-0.186978
-0.606995
-0.993950
-1.098977
-0.808008
-0.253009
0.218062
0.332981
0.176051
0.027034
0.006029
0.053974
0.110020
0.137054
0.118027
0.097021
0.115013
0.124055
0.074038
0.038997
0.095043
0.173037
0.173979
0.120005
0.082044
0.074038
0.087978
0.118027
0.131026
0.115013
0.115013
0.150995
0.176993
0.163994
0.142047
0.141010
0.152031
0.152031
0.137054
0.128012
0.139974
0.158060
0.165030
0.167008
0.170023
0.168045
0.152973
0.129048
0.121041
0.145061
0.186036
0.206005
0.191028
0.172001
0.175015
0.188014
0.189992
0.185000
0.176993
0.157024
0.136018
0.142047
0.162016
0.157024
0.116049
0.066973
0.048982
0.077994
0.146003
0.209020
0.231061
0.214012
0.180007
0.154009
0.152973
0.168045
0.173037
0.162016
0.152973
0.155046
0.163994
0.167008
0.157024
0.152031
0.163994
0.178029
0.173037
0.152031
0.128012
0.115013
0.134982
0.152031
0.055010
-0.235959
-0.649006
-0.980009
-0.985001
-0.576947
0.001978
0.340987
0.298034
0.102014
-0.001978
0.009043
0.063017
0.124997
0.154009
0.147039
0.150053
0.146003
0.095985
0.066973
0.113976
0.142989
0.105028
0.097021
0.149017
0.160980
0.121041
0.108042
0.137996
0.154009
0.139974
0.121983
0.121041
0.134982
0.142989
0.128012
0.113976
0.128012
0.163052
0.181044
0.171059
0.152973
0.139974
0.137054
0.147981
0.162016
0.155988
0.132062
0.124055
0.145061
0.165030
0.158060
0.139974
0.144025
0.163994
0.173979
0.170023
0.172001
0.185000
0.189992
0.186036
0.180007
0.168045
0.144025
0.116991
0.098999
0.098999
0.126033
0.163994
0.185000
0.185000
0.186036
0.196021
0.196021
0.178971
0.163994
0.163052
0.171059
0.172001
0.160038
0.146003
0.147039
0.165030
0.173037
0.160980
0.145061
0.142047
0.145061
0.147039
0.150053
0.160980
0.165030
0.098057
-0.136018
-0.532957
-0.897023
-0.931027
-0.511952
0.108984
0.480020
0.418039
0.176993
0.058024
0.063017
0.061981
0.045025
0.061039
0.079972
0.053032
0.014035
0.030048
0.098999
0.160038
0.173037
0.159002
0.152973
0.157024
0.147981
0.136018
0.154009
0.184058
0.170023
0.105970
0.060002
0.076016
0.118969
0.134982
0.124997
0.116049
0.113034
0.100977
0.095043
0.111998
0.129048
0.121041
0.111998
0.136018
0.167008
0.163994
0.142989
0.129990
0.120005
0.110020
0.118969
0.142989
0.155046
0.142989
0.123019
0.118969
0.134982
0.155046
0.162016
0.154009
0.139032
0.126975
0.113034
0.090051
0.060002
0.040033
0.048982
0.085058
0.124997
0.145061
0.145061
0.146003
0.154009
0.157024
0.147039
0.139974
0.142989
0.152031
0.160980
0.168045
0.160980
0.144025
0.136018
0.139032
0.139974
0.134982
0.132062
0.131026
0.126975
0.126033
0.134982
0.123019
0.003014
-0.295020
-0.696010
-0.949960
-0.816957
-0.310939
0.240010
0.465985
0.322996
0.095043
0.016013
0.055010
0.092029
0.103050
0.107006
0.107006
0.108984
0.123019
0.131026
0.126033
0.124055
0.129048
0.129990
0.121041
0.113034
0.116991
0.126033
0.126975
0.118027
0.115013
0.116991
0.110020
0.089015
0.076016
0.079030
0.085058
0.085058
0.077052
0.051996
0.019969
0.016013
0.032968
0.027976
0.012057
0.025056
0.040975
0.012999
-0.032968
-0.051996
-0.055010
-0.047003
0.001978
0.073001
0.085058
0.022984
-0.034005
-0.030990
0.006029
0.029012
0.034005
0.029012
0.009985
-0.013941
-0.021948
0.003014
0.045025
0.072059
0.061981
0.027034
-0.004992
-0.022984
-0.029954
-0.024020
-0.000942
0.027976
0.045025
0.053974
0.066973
0.077994
0.071023
0.050018
0.040975
0.043047
0.038055
0.027976
0.034005
0.055010
0.061039
0.042011
0.022042
0.022042
0.032968
0.043047
0.051054
0.059061
0.053032
0.034005
0.022042
0.014977
-0.056988
-0.275992
-0.615944
-0.894008
-0.881009
-0.503945
0.012999
0.305005
0.223055
-0.012999
-0.120947
-0.076016
-0.016955
-0.003014
0.004992
0.022042
0.030048
0.029012
0.035983
0.043047
0.038997
0.030990
0.035983
0.050018
0.056046
0.051054
0.045025
0.042011
0.046062
0.056988
0.063017
0.048982
0.027034
0.025056
0.034005
0.034005
0.022042
0.014035
0.011021
0.004050
-0.001978
0.001978
0.009043
0.009043
0.008007
0.016013
0.030048
0.038055
0.040033
0.038997
0.030990
0.019969
0.019027
0.029012
0.038055
0.038997
0.035983
0.030990
0.027034
0.025056
0.021006
0.011021
0.009043
0.022042
0.032968
0.022042
0.004050
0.004992
0.016013
0.001978
-0.040975
-0.073943
-0.077994
-0.074980
-0.087978
-0.105028
-0.112940
-0.108984
-0.084964
-0.034946
0.003014
-0.006970
-0.037019
-0.030990
0.001978
0.009985
-0.006029
-0.011963
0.006029
0.027976
0.030990
0.012999
0.000000
0.006970
0.017991
0.017991
0.017991
0.021006
0.014977
0.001978
-0.003956
0.001978
0.004992
-0.000942
-0.006029
-0.004992
0.004050
0.019969
0.017991
-0.077994
-0.334017
-0.696010
-0.957025
-0.884024
-0.443001
0.089015
0.331003
0.194984
-0.050960
-0.141010
-0.084964
-0.022984
-0.006970
-0.011021
-0.011021
-0.001978
0.014035
0.019969
0.008007
-0.000942
0.014035
0.037019
0.047003
0.043989
0.038997
0.037019
0.032026
0.024020
0.017991
0.017049
0.019969
0.019969
0.017049
0.009985
-0.006029
-0.025998
-0.037961
-0.042011
-0.037961
-0.030990
-0.022984
-0.019969
-0.016955
-0.019969
-0.042011
-0.077994
-0.103992
-0.105970
-0.089015
-0.079030
-0.086942
-0.095985
-0.076958
-0.048982
-0.050018
-0.077994
-0.087978
-0.060002
-0.029012
-0.032026
-0.060944
-0.084022
-0.086000
-0.079972
-0.068009
-0.045967
-0.030990
-0.052938
-0.098999
-0.118027
-0.092029
-0.055952
-0.047003
-0.064995
-0.092971
-0.108984
-0.105970
-0.110020
-0.141952
-0.168987
-0.157024
-0.126975
-0.115955
-0.107006
-0.082986
-0.076016
-0.105970
-0.129990
-0.120947
-0.110020
-0.118027
-0.120005
-0.111998
-0.133946
-0.185000
-0.206005
-0.175015
-0.141010
-0.146003
-0.167950
-0.162958
-0.134982
-0.120947
-0.128953
-0.141952
-0.154951
-0.167950
-0.141952
-0.058966
-0.039939
-0.277029
-0.744991
-1.067987
-0.858968
-0.214954
0.292006
0.285035
0.009985
-0.121983
-0.180949
-0.465985
-0.871025
-0.991030
-0.717015
-0.331003
-0.110962
-0.113976
-0.232945
-0.318946
-0.342023
-0.428024
-0.538986
-0.261015
0.655977
1.619972
1.690054
0.809986
-0.099941
-0.347016
-0.128012
0.066973
0.118969
0.163052
0.189992
0.030990
-0.348994
-0.691959
-0.699024
-0.374992
-0.042011
0.030048
-0.105970
-0.209961
-0.196021
-0.238974
-0.462028
-0.514024
0.142989
1.257979
1.729050
1.015991
-0.040975
-0.428966
-0.202991
0.035041
0.098999
0.136018
0.113976
-0.110962
-0.413989
-0.434994
-0.087978
0.251973
0.269022
0.095985
-0.039939
-0.138938
-0.183022
-0.021006
0.301048
0.501025
0.426046
0.196021
0.012999
-0.011021
0.087978
0.178971
0.183022
0.123019
0.050018
0.006970
0.017991
0.056046
0.081008
0.086000
0.085058
0.103050
0.167008
0.249053
0.259037
0.183022
0.111056
0.103050
0.107006
0.084022
0.072059
0.098057
0.123019
0.121041
0.116049
0.120005
0.107006
0.074980
0.053974
0.061981
0.077052
0.076016
0.073001
0.090993
0.079972
-0.060944
-0.368963
-0.740941
-0.949018
-0.764961
-0.219946
0.298976
0.428024
0.235017
0.043989
0.004992
0.038055
0.051054
0.038055
0.027976
0.040975
0.063017
0.058024
0.022984
0.001978
0.022984
0.063017
0.081008
0.074038
0.053974
0.025998
-0.000942
-0.001978
0.006970
-0.021006
-0.073943
-0.095985
-0.092029
-0.105028
-0.110020
-0.064995
-0.008949
0.004992
-0.003956
-0.001978
-0.004992
-0.027976
-0.053974
-0.063017
-0.063959
-0.066973
-0.071965
-0.068009
-0.039939
-0.012999
-0.040975
-0.102014
-0.107006
-0.045025
-0.004992
-0.029954
-0.068951
-0.076016
-0.060002
-0.040975
-0.034005
-0.047003
-0.064995
-0.064995
-0.045025
-0.026940
-0.021948
-0.026940
-0.039939
-0.060944
-0.082986
-0.089957
-0.081008
-0.079030
-0.090993
-0.102956
-0.107006
-0.102956
-0.081950
-0.047945
-0.022984
-0.019969
-0.029954
-0.038997
-0.047003
-0.056988
-0.068009
-0.068951
-0.050018
-0.029012
-0.029954
-0.050960
-0.068009
-0.068009
-0.060002
-0.053974
-0.056988
-0.063017
-0.056988
-0.045025
-0.042953
-0.037961
-0.026940
-0.094949
-0.344002
-0.727942
-1.028990
-1.017969
-0.628943
-0.084022
0.240010
0.186978
-0.034005
-0.154009
-0.137996
-0.094949
-0.073943
-0.058966
-0.048982
-0.052938
-0.060002
-0.051996
-0.034005
-0.021948
-0.021948
-0.026940
-0.027976
-0.022984
-0.014977
-0.011963
-0.019027
-0.029012
-0.034005
-0.032968
-0.030990
-0.030990
-0.030990
-0.034946
-0.047003
-0.063017
-0.066031
-0.052938
-0.039939
-0.043989
-0.051996
-0.050018
-0.050018
-0.063017
-0.073001
-0.066031
-0.058966
-0.060002
-0.052938
-0.034005
-0.029012
-0.042011
-0.055010
-0.058966
-0.051996
-0.032968
-0.016955
-0.025998
-0.048982
-0.064995
-0.068009
-0.063959
-0.055010
-0.053974
-0.066031
-0.079972
-0.081950
-0.071023
-0.056988
-0.058966
-0.082986
-0.103992
-0.090993
-0.060002
-0.066031
-0.120947
-0.165030
-0.131968
-0.043989
0.017991
0.009985
-0.032026
-0.055952
-0.048982
-0.035983
-0.034005
-0.047003
-0.066031
-0.073943
-0.063959
-0.047003
-0.045967
-0.063017
-0.076016
-0.074980
-0.074980
-0.073943
-0.056988
-0.030990
-0.035983
-0.063017
-0.071023
-0.098999
-0.277029
-0.624986
-0.946004
-0.981987
-0.642978
-0.126975
0.212976
0.197999
-0.006029
-0.139974
-0.146003
-0.113976
-0.086000
-0.060002
-0.043989
-0.050018
-0.063017
-0.060002
-0.038997
-0.019969
-0.021006
-0.029012
-0.026940
-0.019969
-0.019027
-0.019969
-0.019027
-0.017991
-0.022984
-0.038997
-0.061981
-0.068009
-0.045967
-0.025998
-0.034946
-0.045967
-0.027976
-0.011963
-0.037961
-0.081008
-0.092029
-0.079030
-0.082986
-0.095985
-0.079030
-0.037961
-0.034005
-0.087978
-0.131026
-0.107006
-0.060944
-0.064995
-0.102956
-0.112940
-0.089015
-0.076958
-0.095985
-0.111998
-0.094949
-0.079030
-0.107006
-0.141952
-0.120947
-0.066031
-0.056988
-0.105970
-0.144967
-0.118969
-0.055010
-0.022984
-0.045025
-0.081008
-0.107006
-0.144967
-0.191970
-0.194984
-0.142989
-0.087978
-0.060944
-0.042953
-0.037019
-0.071023
-0.118027
-0.121983
-0.089957
-0.081950
-0.118969
-0.149959
-0.124997
-0.068009
-0.045967
-0.089957
-0.149959
-0.172001
-0.152973
-0.121983
-0.107006
-0.113976
-0.128953
-0.129990
-0.107006
-0.069987
-0.084964
-0.261957
-0.636949
-1.045945
-1.191948
-0.889016
-0.296998
0.157024
0.197057
-0.037019
-0.219004
-0.230025
-0.178971
-0.154951
-0.144967
-0.123019
-0.102014
-0.102956
-0.120005
-0.120947
-0.090993
-0.068951
-0.089015
-0.112940
-0.094007
-0.060944
-0.063017
-0.081008
-0.081008
-0.073001
-0.074980
-0.073943
-0.058966
-0.045967
-0.058966
-0.090993
-0.118027
-0.124997
-0.112940
-0.099941
-0.099941
-0.107006
-0.099941
-0.086000
-0.092029
-0.115013
-0.118027
-0.094949
-0.084964
-0.100977
-0.116991
-0.108984
-0.082986
-0.068951
-0.086942
-0.118969
-0.128953
-0.123019
-0.123961
-0.118969
-0.092029
-0.079030
-0.105970
-0.144967
-0.149017
-0.116991
-0.095985
-0.124997
-0.183022
-0.202991
-0.173979
-0.160980
-0.193948
-0.214954
-0.185942
-0.138938
-0.102956
-0.079972
-0.081950
-0.107006
-0.118027
-0.108984
-0.090993
-0.060944
-0.053974
-0.105970
-0.152031
-0.124997
-0.090993
-0.107006
-0.113976
-0.084022
-0.074980
-0.100977
-0.113976
-0.103992
-0.107948
-0.163994
-0.321960
-0.605959
-0.916992
-1.050938
-0.847005
-0.368963
0.077994
0.193006
-0.006029
-0.222019
-0.256023
-0.188956
-0.154951
-0.165030
-0.172001
-0.159944
-0.129990
-0.097963
-0.089957
-0.102956
-0.107006
-0.086942
-0.060944
-0.058024
-0.079030
-0.102956
-0.111998
-0.111998
-0.107948
-0.092971
-0.071023
-0.068009
-0.094949
-0.128953
-0.137996
-0.120947
-0.105028
-0.095985
-0.089015
-0.092029
-0.113976
-0.136018
-0.131968
-0.107006
-0.084964
-0.089957
-0.124997
-0.162016
-0.162958
-0.133004
-0.107006
-0.094949
-0.094007
-0.113976
-0.141010
-0.136960
-0.097963
-0.076958
-0.097021
-0.110962
-0.090993
-0.077994
-0.103992
-0.139974
-0.152973
-0.154951
-0.170023
-0.188014
-0.175957
-0.133004
-0.089957
-0.076958
-0.084964
-0.092029
-0.089957
-0.086000
-0.084022
-0.086942
-0.092029
-0.097021
-0.098999
-0.097963
-0.092971
-0.092029
-0.107948
-0.136018
-0.144967
-0.125939
-0.107948
-0.115013
-0.116991
-0.097021
-0.136018
-0.335995
-0.676982
-0.983023
-1.028990
-0.715979
-0.215990
0.124997
0.121041
-0.082986
-0.228989
-0.232003
-0.170023
-0.123961
-0.108984
-0.107006
-0.105970
-0.102956
-0.095985
-0.087978
-0.079030
-0.071965
-0.066973
-0.066973
-0.071965
-0.071965
-0.068009
-0.069987
-0.081008
-0.086000
-0.076016
-0.064995
-0.073001
-0.103992
-0.144025
-0.172943
-0.197999
-0.251031
-0.314989
-0.303027
-0.173979
-0.032968
0.001978
-0.047003
-0.082986
-0.084022
-0.092971
-0.111998
-0.110962
-0.090993
-0.077994
-0.073943
-0.071965
-0.073001
-0.081950
-0.092029
-0.097963
-0.092971
-0.081950
-0.076016
-0.084022
-0.097021
-0.105028
-0.110020
-0.120947
-0.139974
-0.167008
-0.189992
-0.178029
-0.128012
-0.076958
-0.055010
-0.058024
-0.077994
-0.102956
-0.105970
-0.076958
-0.047003
-0.045967
-0.064995
-0.077994
-0.073001
-0.063017
-0.063017
-0.071023
-0.081950
-0.090993
-0.099941
-0.102956
-0.099941
-0.095985
-0.087978
-0.102014
-0.219946
-0.488968
-0.803016
-0.962959
-0.834948
-0.441023
0.009043
0.217026
0.095043
-0.125939
-0.206005
-0.162958
-0.128012
-0.128953
-0.121983
-0.098999
-0.079030
-0.073001
-0.079030
-0.084964
-0.076958
-0.060944
-0.053974
-0.060002
-0.069987
-0.077994
-0.081950
-0.074980
-0.060944
-0.056988
-0.074980
-0.094007
-0.090993
-0.076016
-0.073943
-0.089015
-0.100977
-0.105970
-0.115955
-0.123961
-0.115955
-0.102956
-0.107948
-0.123961
-0.124997
-0.110962
-0.102014
-0.103992
-0.105970
-0.102956
-0.102956
-0.105028
-0.110020
-0.116991
-0.124997
-0.133004
-0.133946
-0.118969
-0.105970
-0.125939
-0.163994
-0.185942
-0.202991
-0.243966
-0.290028
-0.303968
-0.279949
-0.238974
-0.196963
-0.157966
-0.116991
-0.076016
-0.055010
-0.069987
-0.103992
-0.118969
-0.110962
-0.105028
-0.112940
-0.118027
-0.110020
-0.105028
-0.110962
-0.111998
-0.107006
-0.116991
-0.144025
-0.152973
-0.123961
-0.097963
-0.111998
-0.136018
-0.120947
-0.123961
-0.275992
-0.589946
-0.887980
-0.957967
-0.727000
-0.308019
0.055010
0.155046
0.014035
-0.154009
-0.204027
-0.165972
-0.128953
-0.113976
-0.107006
-0.097021
-0.081950
-0.068009
-0.066973
-0.069987
-0.068009
-0.066973
-0.068009
-0.060944
-0.055010
-0.058024
-0.060002
-0.061981
-0.073943
-0.081008
-0.066973
-0.048982
-0.051996
-0.068951
-0.079972
-0.077994
-0.071023
-0.073943
-0.090993
-0.105028
-0.098999
-0.081008
-0.069987
-0.069987
-0.076016
-0.084964
-0.086942
-0.079972
-0.069987
-0.066973
-0.069987
-0.073943
-0.077994
-0.084964
-0.086942
-0.086942
-0.086942
-0.087978
-0.084964
-0.084964
-0.092029
-0.100977
-0.103992
-0.100977
-0.105970
-0.126975
-0.160980
-0.188014
-0.183022
-0.142989
-0.092971
-0.068951
-0.071023
-0.073943
-0.066973
-0.064995
-0.076016
-0.084964
-0.081950
-0.081950
-0.087978
-0.090993
-0.094007
-0.103992
-0.107948
-0.092971
-0.079972
-0.090993
-0.113976
-0.123019
-0.115955
-0.105970
-0.128012
-0.243024
-0.475969
-0.749984
-0.933005
-0.905971
-0.626964
-0.207983
0.102014
0.133004
-0.027976
-0.167950
-0.191028
-0.155988
-0.128012
-0.112940
-0.099941
-0.092971
-0.086942
-0.079972
-0.081950
-0.094949
-0.097963
-0.082986
-0.073943
-0.081950
-0.089957
-0.079030
-0.064995
-0.063959
-0.071023
-0.071965
-0.069987
-0.076016
-0.089957
-0.094949
-0.089957
-0.086942
-0.089015
-0.081950
-0.071965
-0.073001
-0.076958
-0.071965
-0.066973
-0.073001
-0.079972
-0.073001
-0.063959
-0.068009
-0.073943
-0.068009
-0.055952
-0.055952
-0.068009
-0.079030
-0.081008
-0.074980
-0.066973
-0.066031
-0.076958
-0.092971
-0.099941
-0.094007
-0.095985
-0.124997
-0.155988
-0.146945
-0.100977
-0.063959
-0.058966
-0.058966
-0.042011
-0.032026
-0.048982
-0.074980
-0.089015
-0.086942
-0.071023
-0.056988
-0.063959
-0.084022
-0.081950
-0.066973
-0.076016
-0.095985
-0.086942
-0.056988
-0.056988
-0.089957
-0.103992
-0.086942
-0.136960
-0.363029
-0.702980
-0.926977
-0.847947
-0.473991
-0.017991
0.225033
0.131026
-0.107006
-0.220982
-0.173979
-0.113976
-0.120947
-0.144025
-0.128012
-0.092971
-0.089015
-0.105970
-0.095985
-0.068009
-0.071023
-0.089015
-0.066031
-0.019027
-0.017991
-0.063017
-0.092029
-0.079972
-0.060002
-0.048982
-0.038997
-0.034005
-0.042011
-0.055010
-0.056988
-0.058024
-0.068009
-0.076958
-0.076016
-0.073001
-0.073001
-0.066031
-0.055952
-0.060944
-0.089015
-0.118027
-0.121983
-0.107948
-0.105028
-0.116991
-0.118027
-0.105028
-0.094949
-0.081950
-0.077994
-0.110020
-0.149017
-0.146945
-0.126975
-0.123961
-0.110020
-0.081950
-0.103992
-0.170023
-0.181985
-0.123019
-0.086942
-0.100977
-0.097963
-0.066031
-0.066031
-0.099941
-0.112940
-0.089015
-0.069987
-0.079972
-0.098999
-0.098999
-0.092971
-0.102956
-0.110020
-0.097963
-0.089957
-0.094949
-0.079972
-0.058024
-0.073943
-0.100977
-0.089015
-0.113976
-0.311975
-0.654940
-0.931969
-0.928955
-0.577983
-0.068009
0.238032
0.157024
-0.105028
-0.248016
-0.230967
-0.173979
-0.133004
-0.103992
-0.102014
-0.125939
-0.137996
-0.118969
-0.089957
-0.071965
-0.064995
-0.063959
-0.063017
-0.055010
-0.040975
-0.043989
-0.071023
-0.095985
-0.095985
-0.079972
-0.064995
-0.053974
-0.053974
-0.073001
-0.099941
-0.107006
-0.084964
-0.066973
-0.081950
-0.115013
-0.133946
-0.123961
-0.097963
-0.076016
-0.073943
-0.092029
-0.110020
-0.107006
-0.086000
-0.076016
-0.084964
-0.098999
-0.099941
-0.084964
-0.063017
-0.060002
-0.084022
-0.107948
-0.112940
-0.120947
-0.142989
-0.154009
-0.159944
-0.176993
-0.162958
-0.095985
-0.047003
-0.068951
-0.107948
-0.107948
-0.094949
-0.090993
-0.073943
-0.045025
-0.042953
-0.063017
-0.073001
-0.071965
-0.079972
-0.097021
-0.115955
-0.121983
-0.086942
-0.032026
-0.038997
-0.120947
-0.167950
-0.124997
-0.128012
-0.342023
-0.707031
-0.972944
-0.938940
-0.618016
-0.189992
0.120005
0.165972
0.001036
-0.170965
-0.206947
-0.144967
-0.090993
-0.069987
-0.050960
-0.039939
-0.052938
-0.066973
-0.055952
-0.022984
0.001036
-0.004992
-0.034946
-0.050018
-0.047945
-0.064995
-0.087978
-0.060002
-0.006029
-0.012999
-0.073943
-0.092029
-0.060944
-0.053974
-0.071965
-0.068951
-0.076016
-0.123019
-0.146003
-0.107006
-0.064995
-0.060002
-0.055952
-0.037961
-0.038997
-0.066031
-0.076016
-0.048982
-0.024020
-0.043989
-0.074980
-0.063959
-0.034005
-0.038997
-0.068951
-0.079972
-0.068009
-0.056988
-0.055010
-0.055010
-0.069987
-0.110020
-0.149959
-0.150995
-0.107948
-0.060944
-0.043989
-0.052938
-0.063959
-0.068951
-0.063959
-0.043989
-0.022984
-0.024020
-0.050018
-0.069987
-0.066031
-0.060002
-0.066031
-0.071023
-0.066973
-0.066973
-0.069987
-0.058966
-0.042011
-0.043989
-0.058966
-0.071965
-0.141952
-0.350972
-0.670954
-0.921984
-0.905971
-0.574969
-0.113976
0.184058
0.178971
0.008007
-0.111998
-0.125939
-0.105028
-0.087978
-0.066031
-0.045025
-0.034005
-0.029012
-0.024962
-0.027976
-0.032026
-0.024962
-0.016013
-0.024020
-0.045025
-0.055010
-0.047003
-0.032968
-0.017991
-0.006029
-0.003014
-0.008949
-0.014977
-0.019027
-0.030990
-0.042011
-0.029954
-0.003014
-0.000942
-0.029954
-0.048982
-0.029012
-0.006970
-0.025998
-0.063017
-0.060002
-0.021948
0.001036
-0.011021
-0.024020
-0.019969
-0.024962
-0.050018
-0.061981
-0.035983
0.001036
0.006970
-0.014977
-0.032026
-0.029012
-0.026940
-0.045025
-0.071023
-0.081950
-0.056988
-0.008949
0.030048
0.038055
0.022984
0.004992
-0.004992
-0.009985
-0.012999
-0.019969
-0.029012
-0.026940
-0.014977
-0.003014
0.004992
0.011021
0.009985
-0.004992
-0.019027
-0.019027
-0.016955
-0.022984
-0.027976
-0.024020
-0.047003
-0.170023
-0.434994
-0.738021
-0.871025
-0.701002
-0.305005
0.074038
0.194042
0.043047
-0.162958
-0.243966
-0.235017
-0.227011
-0.198941
-0.115955
-0.022984
0.029012
0.040033
0.017991
-0.030990
-0.071023
-0.064995
-0.026940
0.000000
-0.000942
-0.014977
-0.019969
-0.011021
-0.008007
-0.030990
-0.055952
-0.047003
-0.014977
-0.004992
-0.021948
-0.030990
-0.019027
-0.017991
-0.034005
-0.045025
-0.043989
-0.051996
-0.069987
-0.066031
-0.034005
-0.019969
-0.050960
-0.089015
-0.081008
-0.040975
-0.016955
-0.021006
-0.029012
-0.026940
-0.021948
-0.017991
-0.022984
-0.042011
-0.069987
-0.097021
-0.125939
-0.146003
-0.128012
-0.068951
-0.016013
-0.006970
-0.027976
-0.039939
-0.032968
-0.017991
-0.011021
-0.022984
-0.038997
-0.032968
-0.004992
0.004992
-0.014977
-0.037019
-0.042011
-0.045025
-0.050018
-0.039939
-0.022984
-0.019969
-0.030990
-0.025998
-0.026940
-0.125939
-0.384977
-0.701944
-0.853975
-0.697988
-0.303027
0.092029
0.245002
0.121983
-0.066973
-0.125939
-0.082986
-0.053974
-0.056988
-0.047945
-0.029012
-0.027976
-0.034946
-0.025998
-0.001978
0.009985
0.003014
-0.011021
-0.016013
-0.014977
-0.014977
-0.013941
-0.006029
0.001036
-0.001978
-0.009985
-0.016013
-0.019969
-0.021948
-0.016013
-0.012999
-0.019969
-0.037019
-0.047003
-0.042011
-0.027976
-0.011963
-0.004992
-0.016013
-0.038997
-0.045025
-0.022984
-0.003014
-0.016955
-0.045967
-0.053974
-0.038997
-0.022984
-0.019027
-0.026940
-0.040975
-0.051996
-0.055952
-0.060002
-0.068951
-0.092971
-0.125939
-0.128012
-0.076958
-0.019969
-0.012999
-0.038997
-0.042011
-0.014977
0.006970
0.001036
-0.021006
-0.035983
-0.029954
-0.011963
-0.004992
-0.035983
-0.090993
-0.110020
-0.063017
-0.016955
-0.050018
-0.123019
-0.141952
-0.097963
-0.056988
-0.058966
-0.125939
-0.313953
-0.613024
-0.863018
-0.860004
-0.543978
-0.092029
0.189992
0.147981
-0.051996
-0.154951
-0.120947
-0.071965
-0.071023
-0.089957
-0.110020
-0.128953
-0.131968
-0.107948
-0.071965
-0.048982
-0.034946
-0.022984
-0.026940
-0.061981
-0.094949
-0.081950
-0.030990
0.006029
-0.003956
-0.038997
-0.050960
-0.025998
-0.006970
-0.027976
-0.061981
-0.068951
-0.055952
-0.047003
-0.051996
-0.063017
-0.068009
-0.052938
-0.029012
-0.029012
-0.045967
-0.045025
-0.042011
-0.066973
-0.079030
-0.045025
-0.037961
-0.092029
-0.112940
-0.052938
-0.000942
-0.025998
-0.086942
-0.128953
-0.144025
-0.131968
-0.097021
-0.063017
-0.050018
-0.058024
-0.071023
-0.063959
-0.038997
-0.047945
-0.102956
-0.123019
-0.066031
-0.009985
-0.008949
-0.019969
-0.021006
-0.034005
-0.047945
-0.048982
-0.056988
-0.066031
-0.055010
-0.045967
-0.058966
-0.058966
-0.032968
-0.058024
-0.240010
-0.580997
-0.912942
-0.988015
-0.709951
-0.243024
0.108042
0.165030
0.014977
-0.134982
-0.186978
-0.175957
-0.134982
-0.081950
-0.055952
-0.058024
-0.042011
-0.003956
0.012057
-0.001978
-0.016955
-0.019027
-0.019027
-0.021948
-0.019969
-0.006970
0.008007
0.006029
-0.012999
-0.030990
-0.034946
-0.022984
0.001978
0.017049
0.001978
-0.034946
-0.060002
-0.058024
-0.045025
-0.040975
-0.051996
-0.069987
-0.081008
-0.073001
-0.060002
-0.055952
-0.055952
-0.058966
-0.066973
-0.071023
-0.058024
-0.034946
-0.019969
-0.016013
-0.019969
-0.038997
-0.079030
-0.120947
-0.146003
-0.154951
-0.159002
-0.137996
-0.073001
-0.016013
-0.026940
-0.069987
-0.066973
-0.038997
-0.039939
-0.048982
-0.019027
0.025998
0.027034
-0.019027
-0.053974
-0.050960
-0.050018
-0.084964
-0.102956
-0.055010
0.006029
0.004050
-0.045025
-0.076016
-0.055952
-0.024962
-0.073943
-0.287013
-0.616980
-0.884966
-0.907949
-0.631015
-0.183022
0.171059
0.225975
0.047003
-0.111998
-0.113976
-0.045025
-0.017991
-0.038997
-0.063959
-0.068009
-0.058024
-0.042953
-0.024020
-0.008007
-0.011963
-0.025998
-0.021948
0.001036
0.014035
0.016013
0.014977
0.001978
-0.017991
-0.029012
-0.032968
-0.039939
-0.037019
-0.024020
-0.029012
-0.055952
-0.069987
-0.050018
-0.016013
0.003014
-0.001978
-0.024962
-0.042953
-0.042011
-0.034946
-0.045967
-0.064995
-0.068951
-0.060944
-0.050960
-0.032026
-0.003956
0.008007
-0.009985
-0.037019
-0.048982
-0.052938
-0.066973
-0.092029
-0.115013
-0.111998
-0.081950
-0.048982
-0.029954
-0.013941
0.001036
-0.003014
-0.030990
-0.058966
-0.071023
-0.068009
-0.052938
-0.029012
-0.012999
-0.016955
-0.030990
-0.037019
-0.029012
-0.017991
-0.024962
-0.045967
-0.045025
-0.021948
-0.026940
-0.058024
-0.068009
-0.124997
-0.373014
-0.766939
-0.999978
-0.832970
-0.378948
0.030990
0.171059
0.077994
-0.060944
-0.112940
-0.102014
-0.102956
-0.113976
-0.094007
-0.060002
-0.047003
-0.035983
-0.021006
-0.045025
-0.100977
-0.110962
-0.051996
-0.000942
-0.003956
-0.035983
-0.068951
-0.100977
-0.115955
-0.100977
-0.077994
-0.076958
-0.105028
-0.123961
-0.097963
-0.048982
-0.029954
-0.058966
-0.097963
-0.105028
-0.068951
-0.029954
-0.026940
-0.055952
-0.081950
-0.094007
-0.092029
-0.076958
-0.068951
-0.084964
-0.097021
-0.079972
-0.058024
-0.063017
-0.092029
-0.123019
-0.144967
-0.149959
-0.144967
-0.144967
-0.142989
-0.115013
-0.058024
-0.013941
-0.012999
-0.040975
-0.066973
-0.079030
-0.081008
-0.076016
-0.068009
-0.071965
-0.097021
-0.113976
-0.087978
-0.040975
-0.029954
-0.061981
-0.082986
-0.060002
-0.019027
-0.017991
-0.068009
-0.107006
-0.077994
-0.060002
-0.204969
-0.506960
-0.764961
-0.829955
-0.699966
-0.399012
-0.024020
0.178971
0.079030
-0.120947
-0.175015
-0.107948
-0.066031
-0.073001
-0.077994
-0.076016
-0.079030
-0.077994
-0.066973
-0.058024
-0.053974
-0.042953
-0.027976
-0.024020
-0.029954
-0.032968
-0.032026
-0.027976
-0.019969
-0.021006
-0.040975
-0.055010
-0.037019
-0.011963
-0.013941
-0.032026
-0.037961
-0.034946
-0.042011
-0.051996
-0.055010
-0.050018
-0.042011
-0.032026
-0.026940
-0.029012
-0.030990
-0.030990
-0.025998
-0.019027
-0.019027
-0.027976
-0.030990
-0.024962
-0.032968
-0.056988
-0.066973
-0.063017
-0.073943
-0.097021
-0.090993
-0.043989
0.001978
0.009985
-0.004992
-0.013941
-0.012999
-0.013941
-0.021006
-0.026940
-0.027976
-0.016955
-0.003014
-0.000942
-0.008007
-0.004992
0.004992
-0.001978
-0.021006
-0.027976
-0.013941
0.000000
0.000000
0.001036
0.014977
-0.014977
-0.176993
-0.464948
-0.738963
-0.817993
-0.602003
-0.189992
0.142989
0.191028
0.040975
-0.081008
-0.086000
-0.047945
-0.029012
-0.024020
-0.021006
-0.019969
-0.017991
-0.011021
-0.003956
-0.001978
-0.006970
-0.012999
-0.013941
-0.012999
-0.006970
-0.000942
-0.000942
-0.008949
-0.012999
-0.004992
0.004992
0.003014
0.000000
0.001978
0.000000
-0.016013
-0.029012
-0.024020
-0.011021
-0.008949
-0.017991
-0.022984
-0.017991
-0.017991
-0.024020
-0.027976
-0.024020
-0.017991
-0.014977
-0.006970
0.001036
0.001036
-0.006029
-0.012999
-0.021006
-0.029012
-0.039939
-0.055952
-0.073001
-0.071023
-0.035983
0.006970
0.014977
-0.011963
-0.034946
-0.026940
-0.003956
0.006970
0.001036
-0.000942
0.012999
0.027034
0.022042
0.004050
-0.006970
-0.009985
-0.017991
-0.032026
-0.038997
-0.027976
-0.017991
-0.047003
-0.110962
-0.131968
-0.092971
-0.141952
-0.400990
-0.753940
-0.944026
-0.806030
-0.399012
0.017991
0.176051
0.060002
-0.105970
-0.146003
-0.094949
-0.068951
-0.107948
-0.149959
-0.129990
-0.073943
-0.050018
-0.055952
-0.047003
-0.019969
-0.012999
-0.029012
-0.042011
-0.043989
-0.042011
-0.034005
-0.016013
-0.008949
-0.030990
-0.058966
-0.050960
-0.011021
0.009043
-0.019027
-0.058966
-0.071965
-0.056988
-0.037961
-0.024020
-0.025998
-0.047003
-0.068951
-0.064995
-0.042953
-0.032026
-0.032026
-0.024962
-0.017991
-0.029012
-0.047945
-0.056988
-0.060944
-0.064995
-0.066973
-0.071965
-0.089957
-0.108984
-0.105028
-0.071965
-0.029012
0.001978
0.009985
-0.003014
-0.021948
-0.029012
-0.014977
0.000000
-0.003956
-0.016955
-0.017991
-0.011021
-0.011963
-0.016013
-0.012999
-0.011963
-0.024962
-0.042953
-0.048982
-0.040975
-0.037961
-0.042953
-0.032968
-0.024020
-0.110020
-0.357942
-0.675004
-0.848983
-0.733970
-0.381020
-0.008949
0.157024
0.076016
-0.079030
-0.131968
-0.092029
-0.060944
-0.056988
-0.042953
-0.019969
-0.011963
-0.016013
-0.019969
-0.017991
-0.017991
-0.019027
-0.011021
0.008007
0.021006
0.011021
-0.009985
-0.014977
0.001036
0.011021
-0.003014
-0.026940
-0.035983
-0.037961
-0.063959
-0.107948
-0.120947
-0.089015
-0.060002
-0.058966
-0.060944
-0.063017
-0.092029
-0.128012
-0.115013
-0.056988
-0.009985
0.001036
-0.014977
-0.043989
-0.071965
-0.076016
-0.052938
-0.035983
-0.061981
-0.118969
-0.159944
-0.165972
-0.159944
-0.152031
-0.123019
-0.066973
-0.017991
-0.008007
-0.024020
-0.037961
-0.040975
-0.037019
-0.025998
-0.019969
-0.030990
-0.048982
-0.052938
-0.045025
-0.045025
-0.048982
-0.047003
-0.040975
-0.042011
-0.047945
-0.047945
-0.042011
-0.037019
-0.035983
-0.066031
-0.193006
-0.447993
-0.725022
-0.835984
-0.691017
-0.363029
-0.022984
0.152031
0.092029
-0.079030
-0.172001
-0.150995
-0.102014
-0.069987
-0.042011
-0.034946
-0.064995
-0.092029
-0.086000
-0.068009
-0.061981
-0.047003
-0.012999
0.009985
0.001978
-0.006029
0.006029
0.014035
-0.008949
-0.039939
-0.038997
-0.014977
-0.009985
-0.035983
-0.063959
-0.071023
-0.066031
-0.071023
-0.084964
-0.086000
-0.066031
-0.039939
-0.025998
-0.024020
-0.032968
-0.045967
-0.051996
-0.042953
-0.027976
-0.021006
-0.027976
-0.040975
-0.042953
-0.034946
-0.042011
-0.060944
-0.066031
-0.066031
-0.097021
-0.141010
-0.137996
-0.084964
-0.047003
-0.050960
-0.055010
-0.032026
-0.019027
-0.039939
-0.053974
-0.029954
0.000000
-0.004992
-0.030990
-0.043989
-0.039939
-0.027976
-0.021948
-0.024962
-0.027976
-0.022984
-0.016013
-0.016013
-0.026940
-0.047945
-0.052938
-0.032026
-0.066031
-0.249995
-0.540964
-0.761004
-0.759026
-0.514966
-0.149959
0.120005
0.157024
0.035041
-0.071965
-0.094949
-0.084022
-0.073001
-0.045967
-0.003014
0.022042
0.014035
-0.011021
-0.030990
-0.034946
-0.021006
-0.003956
0.004050
0.004050
0.006029
0.001036
-0.019969
-0.042953
-0.047945
-0.039939
-0.035983
-0.037961
-0.032968
-0.021006
-0.017991
-0.030990
-0.050960
-0.058024
-0.042011
-0.021006
-0.016013
-0.022984
-0.016955
-0.000942
-0.008949
-0.038997
-0.050018
-0.030990
-0.016955
-0.021006
-0.025998
-0.026940
-0.029012
-0.022984
-0.008007
-0.001978
-0.012999
-0.024020
-0.032026
-0.048982
-0.069987
-0.081008
-0.073001
-0.042953
-0.006029
0.006029
-0.008949
-0.016955
-0.009985
-0.013941
-0.032026
-0.034946
-0.019027
0.000000
0.009043
0.009043
0.004992
0.003014
0.000000
-0.004992
-0.006970
-0.001978
0.004992
0.014977
0.025056
0.022042
0.001978
-0.008949
-0.003014
-0.038997
-0.207983
-0.503003
-0.761946
-0.787944
-0.532015
-0.146945
0.120005
0.124055
-0.055010
-0.196021
-0.183964
-0.098999
-0.055010
-0.061981
-0.081950
-0.092971
-0.082986
-0.055952
-0.045025
-0.068009
-0.087978
-0.058966
-0.003014
0.019969
-0.008949
-0.051996
-0.060002
-0.024962
0.011021
0.003014
-0.040975
-0.063017
-0.037961
-0.004992
-0.011021
-0.034946
-0.030990
-0.000942
0.012999
0.004050
-0.004992
-0.009985
-0.024962
-0.037961
-0.026940
-0.019027
-0.038997
-0.060002
-0.035983
0.012999
0.032968
0.019969
0.000000
-0.016013
-0.021006
-0.004992
0.004992
-0.019027
-0.040975
-0.021006
-0.004992
-0.050960
-0.111998
-0.108984
-0.047003
0.017049
0.047003
0.043989
0.034005
0.029012
0.019969
0.003014
0.000000
0.017049
0.032968
0.035983
0.022984
-0.001978
-0.019027
-0.014977
-0.001978
-0.001978
-0.001978
0.012999
0.024020
0.019027
0.014977
0.027976
0.027034
-0.058966
-0.292948
-0.615944
-0.824963
-0.749984
-0.420959
-0.042011
0.175015
0.150995
0.004992
-0.076958
-0.066973
-0.063017
-0.081950
-0.058966
0.004992
0.040033
0.029012
0.009985
0.006029
0.014035
0.034005
0.051054
0.045025
0.021006
0.004050
0.014977
0.046062
0.077052
0.092029
0.087037
0.066973
0.043989
0.035041
0.040975
0.043989
0.040033
0.040033
0.043989
0.035983
0.022042
0.017991
0.019027
0.011021
0.004050
0.009043
0.012999
0.001036
-0.003014
0.021006
0.045025
0.035041
0.003014
-0.008007
0.009043
0.021006
0.009043
-0.013941
-0.038997
-0.060944
-0.066973
-0.050960
-0.039939
-0.045025
-0.024020
0.038055
0.072059
0.046062
0.024020
0.053974
0.079972
0.058024
0.030990
0.029012
0.027034
0.022042
0.043989
0.074038
0.064053
0.030990
0.012999
0.014035
0.022042
0.035041
0.035983
0.017991
0.016013
0.025998
-0.051996
-0.297940
-0.608973
-0.765997
-0.649006
-0.347016
-0.034946
0.150053
0.155988
0.034005
-0.077994
-0.079972
-0.012999
0.022042
0.008007
-0.008949
-0.011963
-0.011021
0.001036
0.017991
0.014977
0.000000
0.004992
0.022042
0.022984
0.014977
0.024020
0.046062
0.056046
0.043047
0.017991
0.006029
0.016013
0.027976
0.021006
0.006970
0.006029
0.014977
0.009043
-0.008949
-0.011963
0.012999
0.032026
0.016013
-0.009985
-0.011963
0.009043
0.025998
0.022984
0.006029
-0.003956
0.000000
0.008007
0.017991
0.029012
0.016013
-0.025998
-0.053974
-0.045025
-0.034946
-0.048982
-0.056988
-0.032968
0.004050
0.021006
0.009043
-0.004992
0.001036
0.022042
0.035041
0.035041
0.032968
0.032026
0.024020
0.012057
0.006029
0.011021
0.012057
-0.000942
-0.013941
-0.012999
0.001978
0.012057
0.001978
-0.013941
-0.006970
0.000000
-0.094949
-0.355022
-0.673968
-0.847005
-0.754976
-0.449971
-0.095985
0.120005
0.107006
-0.043989
-0.146003
-0.128012
-0.066973
-0.042011
-0.055010
-0.073943
-0.079972
-0.064995
-0.045025
-0.042011
-0.055010
-0.066973
-0.068951
-0.063959
-0.055952
-0.050018
-0.042953
-0.024020
-0.011963
-0.050018
-0.108984
-0.102014
-0.032968
-0.009985
-0.063959
-0.097021
-0.051996
-0.008949
-0.042953
-0.107006
-0.118969
-0.087978
-0.071023
-0.071965
-0.063959
-0.064995
-0.089015
-0.098999
-0.068009
-0.042011
-0.068009
-0.113976
-0.121983
-0.094007
-0.074980
-0.090993
-0.131968
-0.162958
-0.136960
-0.060002
-0.000942
-0.017991
-0.074980
-0.092971
-0.055010
-0.034005
-0.079972
-0.141952
-0.134982
-0.068009
-0.017991
-0.019969
-0.037019
-0.037019
-0.030990
-0.043989
-0.073001
-0.084964
-0.068009
-0.056988
-0.081950
-0.115955
-0.105028
-0.058966
-0.086000
-0.282963
-0.577983
-0.788980
-0.798965
-0.594938
-0.238032
0.084022
0.165972
0.029012
-0.105970
-0.120005
-0.081008
-0.064995
-0.066031
-0.064995
-0.066973
-0.066031
-0.045967
-0.016955
-0.006970
-0.021948
-0.034005
-0.024962
-0.011021
-0.004992
-0.003014
-0.003014
-0.006970
-0.011021
-0.008007
-0.003014
-0.011963
-0.030990
-0.038997
-0.024020
-0.008949
-0.011963
-0.021948
-0.021948
-0.013941
-0.008949
-0.009985
-0.021006
-0.035983
-0.035983
-0.019969
-0.011963
-0.026940
-0.040975
-0.027976
-0.004992
-0.003014
-0.014977
-0.019027
-0.025998
-0.060002
-0.102956
-0.112940
-0.081950
-0.034946
0.006029
0.029012
0.027976
0.012999
-0.000942
-0.004992
0.001036
0.000000
-0.016013
-0.034005
-0.034946
-0.029012
-0.034005
-0.042011
-0.029954
0.001036
0.019027
0.001036
-0.029954
-0.035983
-0.014977
0.001036
0.004992
-0.008007
-0.098999
-0.321018
-0.593996
-0.748947
-0.686025
-0.412953
-0.047945
0.184058
0.139032
-0.043989
-0.123961
-0.082986
-0.056988
-0.071023
-0.061981
-0.030990
-0.025998
-0.042011
-0.040975
-0.029954
-0.042953
-0.069987
-0.077994
-0.081008
-0.102014
-0.105970
-0.073001
-0.051996
-0.079030
-0.098999
-0.063017
-0.016955
-0.013941
-0.035983
-0.039939
-0.027976
-0.022984
-0.026940
-0.029954
-0.038997
-0.056988
-0.068009
-0.061981
-0.042953
-0.019027
-0.011021
-0.034005
-0.071023
-0.081950
-0.068951
-0.058966
-0.053974
-0.042953
-0.037019
-0.048982
-0.074980
-0.097963
-0.107006
-0.103992
-0.100977
-0.094007
-0.066973
-0.034005
-0.030990
-0.064995
-0.089015
-0.060944
-0.011021
0.001978
-0.027976
-0.052938
-0.045967
-0.024020
-0.017991
-0.025998
-0.025998
-0.009985
-0.000942
-0.021006
-0.040975
-0.024962
0.008007
0.016013
0.004050
-0.003956
-0.037961
-0.165030
-0.405982
-0.670012
-0.793973
-0.666997
-0.334017
0.017991
0.184058
0.105970
-0.076958
-0.170023
-0.131968
-0.066031
-0.042953
-0.050018
-0.058966
-0.058966
-0.040975
-0.021006
-0.032026
-0.058966
-0.051996
-0.013941
0.004992
-0.008949
-0.021948
-0.022984
-0.021006
-0.014977
-0.001978
-0.001978
-0.037019
-0.082986
-0.086942
-0.045025
-0.008007
-0.001978
-0.003014
-0.009985
-0.045025
-0.081950
-0.071965
-0.025998
-0.000942
-0.009985
-0.016013
-0.006029
-0.009985
-0.043989
-0.069987
-0.050018
-0.011021
0.004050
-0.008007
-0.017991
-0.016013
-0.019969
-0.042953
-0.073001
-0.077994
-0.047945
-0.012999
0.004050
0.004050
-0.003956
-0.019027
-0.029954
-0.022984
-0.003956
0.011021
0.012999
0.011021
0.012999
0.012057
-0.001978
-0.017991
-0.016955
-0.000942
0.004992
-0.008007
-0.021948
-0.029954
-0.045025
-0.056988
-0.055952
-0.082986
-0.210998
-0.447993
-0.701944
-0.821949
-0.680938
-0.309997
0.045025
0.134982
-0.008007
-0.146945
-0.163994
-0.138938
-0.137996
-0.133946
-0.105970
-0.077994
-0.055010
-0.024020
0.004050
0.003014
-0.016013
-0.026940
-0.019027
-0.008007
-0.008949
-0.024020
-0.039939
-0.038997
-0.019027
0.001036
0.004050
-0.008007
-0.021948
-0.025998
-0.019969
-0.012999
-0.013941
-0.016955
-0.012999
-0.006970
-0.013941
-0.035983
-0.051996
-0.045025
-0.024020
-0.012999
-0.022984
-0.042953
-0.056988
-0.056988
-0.042011
-0.022984
-0.014977
-0.025998
-0.050960
-0.084964
-0.123019
-0.150995
-0.146945
-0.102956
-0.048982
-0.024020
-0.030990
-0.035983
-0.016013
0.011021
0.012999
-0.006970
-0.029012
-0.053974
-0.073943
-0.063017
-0.022984
0.001036
-0.008007
-0.014977
-0.003014
-0.001978
-0.021948
-0.038997
-0.043989
-0.050960
-0.050960
-0.022984
-0.019969
-0.157966
-0.452986
-0.743955
-0.855953
-0.730014
-0.407018
-0.034946
0.158060
0.079030
-0.110020
-0.189992
-0.136018
-0.073001
-0.074980
-0.097021
-0.077994
-0.026940
0.008007
-0.000942
-0.040975
-0.073943
-0.071023
-0.037019
-0.009985
-0.013941
-0.029012
-0.027976
-0.008007
0.017991
0.030048
0.017049
-0.009985
-0.030990
-0.035983
-0.024020
-0.003956
0.009043
-0.001978
-0.029012
-0.038997
-0.024962
-0.022984
-0.050960
-0.068951
-0.043989
-0.003956
0.003014
-0.014977
-0.025998
-0.022984
-0.019969
-0.025998
-0.034946
-0.042953
-0.050018
-0.060944
-0.084022
-0.110020
-0.126975
-0.126975
-0.110020
-0.079972
-0.047945
-0.024962
-0.016013
-0.016955
-0.019027
-0.019969
-0.030990
-0.055010
-0.063959
-0.035983
0.000000
0.004050
-0.008949
-0.003014
0.006970
-0.008949
-0.038997
-0.039939
-0.003014
0.032968
0.038055
0.024020
-0.008949
-0.134982
-0.394019
-0.684989
-0.822985
-0.683011
-0.303027
0.081008
0.199035
0.048040
-0.115955
-0.128953
-0.071023
-0.052938
-0.068009
-0.081008
-0.084964
-0.066973
-0.011963
0.032968
0.009985
-0.050960
-0.058024
-0.008949
0.012057
-0.016955
-0.032026
-0.011963
0.006970
0.019027
0.032968
0.025998
-0.008949
-0.021006
0.009043
0.014035
-0.060002
-0.149017
-0.160980
-0.102956
-0.056988
-0.056988
-0.077994
-0.094949
-0.102014
-0.081950
-0.032968
0.006029
-0.000942
-0.022984
-0.008949
0.024020
0.022042
-0.013941
-0.032968
-0.021948
-0.024962
-0.066973
-0.107948
-0.097963
-0.037019
0.027976
0.064053
0.064053
0.040033
0.019027
0.021006
0.029012
0.009043
-0.029012
-0.034005
0.001978
0.025998
0.009985
-0.016013
-0.021948
-0.003956
0.022984
0.035983
0.019969
0.001978
0.019969
0.061981
0.082986
0.043047
-0.102014
-0.366985
-0.662005
-0.819971
-0.738021
-0.444979
-0.076016
0.167008
0.150995
-0.027976
-0.144025
-0.116991
-0.051996
-0.035983
-0.048982
-0.052938
-0.047945
-0.026940
-0.001978
-0.004992
-0.026940
-0.014977
0.035041
0.059061
0.035983
0.022042
0.046062
0.064995
0.045025
0.009985
-0.001978
0.001036
0.001978
0.011021
0.040975
0.064053
0.038055
-0.019027
-0.045967
-0.016955
0.017991
0.006029
-0.034005
-0.039939
-0.001978
0.027976
0.022042
0.004050
0.004992
0.012999
0.008007
-0.006970
-0.009985
0.006970
0.017991
-0.001978
-0.034005
-0.047003
-0.043989
-0.032968
-0.008007
0.027976
0.056988
0.064053
0.048982
0.022984
0.011021
0.021006
0.040033
0.046062
0.030048
0.009985
0.017991
0.053974
0.066031
0.024020
-0.027976
-0.032968
0.012057
0.059061
0.066973
0.042011
0.029012
0.051054
0.019969
-0.183964
-0.511010
-0.753940
-0.748006
-0.475027
-0.056988
0.246038
0.233039
0.016013
-0.115955
-0.071965
0.012057
0.046062
0.048040
0.030990
0.001036
-0.006029
0.014035
0.032968
0.056988
0.097021
0.108042
0.061981
0.024020
0.051996
0.095043
0.089015
0.056046
0.043989
0.051996
0.059061
0.061981
0.059061
0.045025
0.032026
0.030048
0.035041
0.042011
0.048040
0.032968
0.009043
0.008007
0.025998
0.022984
-0.001978
-0.003014
0.024020
0.043989
0.038055
0.024020
0.014035
0.004050
-0.009985
-0.026940
-0.043989
-0.060944
-0.071965
-0.064995
-0.029954
0.019027
0.045025
0.038997
0.022042
0.017049
0.019969
0.025998
0.027034
0.016013
0.011021
0.042011
0.084022
0.077994
0.032026
0.014977
0.048982
0.079030
0.072059
0.051054
0.038055
0.035041
0.035983
0.035041
0.035041
0.038055
-0.012999
-0.199977
-0.490946
-0.705994
-0.670954
-0.386955
-0.026940
0.210056
0.236054
0.113034
-0.013941
-0.037961
0.016013
0.048040
0.024020
0.004050
0.030990
0.053032
0.024020
-0.008949
0.014035
0.066031
0.074980
0.043047
0.027034
0.040033
0.056988
0.066973
0.081008
0.082986
0.066031
0.061981
0.086000
0.100977
0.077994
0.053032
0.064053
0.084022
0.079972
0.074038
0.089015
0.092029
0.064053
0.042011
0.060002
0.095985
0.107006
0.085058
0.050018
0.035041
0.058024
0.076016
0.035041
-0.026940
-0.024962
0.025998
0.048040
0.042011
0.047003
0.043047
0.014035
0.008007
0.060002
0.126975
0.147039
0.126033
0.107006
0.108042
0.102014
0.079972
0.077052
0.103992
0.129990
0.123019
0.092029
0.063017
0.063017
0.092029
0.115013
0.105028
0.082986
0.082044
0.085058
0.063017
0.040033
0.056988
0.097021
0.084022
-0.043989
-0.292948
-0.581939
-0.733028
-0.595974
-0.214012
0.160980
0.280985
0.139974
-0.047003
-0.107006
-0.060944
-0.016955
0.008007
0.045025
0.074980
0.064995
0.048040
0.066973
0.092029
0.090051
0.079030
0.084022
0.098057
0.111998
0.116991
0.098999
0.077052
0.081008
0.111998
0.133004
0.124997
0.103050
0.084022
0.071023
0.058024
0.048982
0.066031
0.100977
0.113976
0.084022
0.038997
0.021006
0.037019
0.058024
0.066973
0.074038
0.090051
0.095985
0.079030
0.063017
0.072059
0.087978
0.084022
0.069987
0.072059
0.079030
0.064053
0.034005
0.016013
0.025056
0.061039
0.102014
0.121983
0.118027
0.100035
0.074038
0.063017
0.090051
0.129990
0.137054
0.123019
0.118969
0.118969
0.105970
0.094007
0.098999
0.108042
0.108042
0.102014
0.107006
0.121983
0.124997
0.113034
0.105970
0.066973
-0.084964
-0.355964
-0.613024
-0.678018
-0.462028
-0.066031
0.254987
0.296998
0.128012
-0.012999
-0.008949
0.048040
0.060002
0.053032
0.077994
0.108042
0.103050
0.086000
0.098057
0.124055
0.129990
0.124055
0.131026
0.149017
0.152973
0.136018
0.120005
0.124055
0.142047
0.152973
0.149017
0.145061
0.147039
0.142989
0.128012
0.116049
0.121983
0.134040
0.142047
0.139974
0.126033
0.110020
0.111998
0.132062
0.137054
0.128012
0.129990
0.147981
0.150053
0.133004
0.124055
0.137054
0.152973
0.146003
0.113976
0.079030
0.073001
0.094007
0.100035
0.066973
0.027976
0.032026
0.086000
0.139032
0.132062
0.068009
0.016013
0.017049
0.046062
0.073001
0.087978
0.076016
0.048982
0.056046
0.110020
0.168987
0.197057
0.173979
0.103050
0.047003
0.060002
0.108042
0.129048
0.120005
0.107006
0.087978
0.008007
-0.201013
-0.490946
-0.673968
-0.608031
-0.326952
0.021006
0.258001
0.256023
0.084022
-0.047003
-0.042011
0.006029
0.017049
0.025056
0.055010
0.073001
0.063017
0.056046
0.073001
0.098057
0.111998
0.115013
0.116991
0.121041
0.118969
0.120005
0.139974
0.165030
0.152031
0.098999
0.071023
0.098999
0.134982
0.134040
0.115013
0.116049
0.128012
0.124997
0.113034
0.113976
0.121983
0.120005
0.108042
0.108042
0.120005
0.121041
0.105970
0.098999
0.116991
0.139032
0.150053
0.154009
0.152973
0.142989
0.129048
0.118969
0.118027
0.129990
0.147039
0.134982
0.081008
0.030048
0.037019
0.092029
0.142047
0.163994
0.172001
0.171059
0.147981
0.121041
0.123019
0.147981
0.160038
0.149017
0.142989
0.150053
0.150995
0.136018
0.121041
0.118027
0.124055
0.126975
0.131026
0.139974
0.146003
0.139974
0.134040
0.116049
0.008007
-0.235959
-0.529943
-0.694032
-0.587026
-0.230967
0.150995
0.306041
0.207041
0.051996
-0.001978
0.014035
0.014035
0.003014
0.030048
0.095043
0.146003
0.134040
0.079972
0.069045
0.124055
0.163994
0.134982
0.103050
0.124055
0.139032
0.108042
0.086000
0.103992
0.111056
0.084022
0.069987
0.087037
0.094007
0.081008
0.082044
0.103050
0.116991
0.111998
0.095985
0.081008
0.074980
0.074038
0.069987
0.066973
0.074980
0.079972
0.063017
0.048982
0.064053
0.079972
0.074038
0.079030
0.108042
0.113976
0.086000
0.073001
0.090993
0.094007
0.053974
0.003014
-0.006970
0.043047
0.111056
0.134040
0.103050
0.072059
0.079030
0.097021
0.095985
0.090993
0.105970
0.126033
0.126975
0.111998
0.095985
0.090993
0.095043
0.103992
0.105970
0.100035
0.094007
0.092029
0.084022
0.066031
0.064995
0.079972
0.024020
-0.180949
-0.464948
-0.657955
-0.631015
-0.363029
0.022984
0.280043
0.251031
0.066031
-0.048982
-0.039939
-0.003014
0.014035
0.034005
0.061981
0.069987
0.048040
0.012999
-0.001978
0.019969
0.061039
0.079972
0.066973
0.046062
0.037019
0.048040
0.074980
0.095985
0.086000
0.053974
0.035983
0.050018
0.079030
0.095043
0.081008
0.056046
0.048982
0.060002
0.064053
0.056046
0.053032
0.056046
0.051996
0.048040
0.053974
0.059061
0.059061
0.069987
0.086000
0.087037
0.074038
0.061981
0.055010
0.051996
0.050018
0.040975
0.037019
0.043047
0.035041
0.003014
-0.009985
0.025056
0.073001
0.092029
0.092971
0.100035
0.100977
0.086000
0.066973
0.058024
0.063017
0.085058
0.103050
0.094007
0.074980
0.079972
0.105970
0.120005
0.110020
0.092971
0.086000
0.092971
0.100035
0.098057
0.100977
0.102014
0.012999
-0.230025
-0.529943
-0.694032
-0.618016
-0.324974
0.051996
0.277029
0.210998
0.001978
-0.107948
-0.086942
-0.040975
-0.004992
0.030990
0.047003
0.034005
0.027976
0.053032
0.084022
0.077052
0.042011
0.032968
0.060002
0.069987
0.037019
0.004050
0.006970
0.029012
0.043047
0.053974
0.069987
0.071023
0.043047
0.016013
0.025056
0.051996
0.056988
0.040033
0.032968
0.043989
0.056046
0.066973
0.079030
0.081008
0.066031
0.046062
0.037019
0.038055
0.042011
0.048982
0.061981
0.074038
0.074980
0.069045
0.063017
0.059061
0.059061
0.056046
0.038055
0.012057
0.004992
0.019969
0.042011
0.066031
0.086000
0.087978
0.074980
0.066973
0.066031
0.059061
0.040975
0.017991
0.004992
0.019969
0.053032
0.074980
0.074038
0.053974
0.024020
0.004050
0.014977
0.035983
0.027034
0.000000
-0.001978
-0.011021
-0.124997
-0.371978
-0.639021
-0.764019
-0.652020
-0.347016
-0.021948
0.139974
0.097021
-0.032968
-0.105028
-0.087978
-0.047945
-0.026940
-0.004992
0.032968
0.056988
0.051996
0.040033
0.040975
0.042011
0.038997
0.045025
0.059061
0.066973
0.060002
0.048040
0.043989
0.053032
0.066973
0.069987
0.063017
0.053974
0.045025
0.038055
0.045025
0.059061
0.061039
0.053974
0.056046
0.064053
0.066973
0.061981
0.050018
0.035041
0.025056
0.027034
0.043047
0.066973
0.071023
0.048982
0.038055
0.069987
0.111998
0.115013
0.074980
0.024020
0.009043
0.032026
0.034005
-0.012999
-0.034005
0.025056
0.095985
0.103050
0.079972
0.076016
0.081008
0.074980
0.071023
0.076016
0.079030
0.081008
0.087037
0.081008
0.061981
0.050018
0.056046
0.069045
0.069987
0.056988
0.035983
0.025056
0.029012
0.045025
0.066973
0.047003
-0.099941
-0.396939
-0.723986
-0.865938
-0.668976
-0.219004
0.163052
0.228047
0.063017
-0.073001
-0.081950
-0.037961
-0.001978
0.022042
0.025056
-0.000942
-0.021006
0.000000
0.038055
0.046062
0.032026
0.030990
0.035983
0.022042
0.006029
0.016013
0.035983
0.037019
0.025998
0.017049
0.009043
0.006029
0.017049
0.038055
0.053032
0.045025
0.016013
-0.019969
-0.043989
-0.040975
-0.012999
0.012057
-0.003014
-0.040975
-0.047003
-0.016013
-0.000942
-0.019027
-0.021006
0.017991
0.048040
0.035041
0.011021
0.017991
0.038997
0.040975
0.027034
0.019969
0.016013
-0.019027
-0.073001
-0.071023
0.009043
0.082044
0.076016
0.032968
0.025998
0.053974
0.073001
0.072059
0.064053
0.064053
0.082044
0.102014
0.090993
0.061981
0.053974
0.051996
0.024020
-0.000942
0.022984
0.063017
0.069987
0.053032
0.038055
0.040033
0.056988
0.037019
-0.110020
-0.391005
-0.673026
-0.787944
-0.653999
-0.309997
0.068009
0.246980
0.146003
-0.058966
-0.146945
-0.102956
-0.055952
-0.053974
-0.038997
0.011021
0.042011
0.025998
0.000000
0.003014
0.021006
0.029012
0.019969
0.009043
0.012999
0.034005
0.048040
0.034005
0.004992
-0.013941
-0.012999
0.004992
0.019027
0.009985
-0.004992
0.001036
0.016013
0.001978
-0.032026
-0.045025
-0.029954
-0.011021
-0.006029
-0.021006
-0.060002
-0.105028
-0.110962
-0.063017
-0.012999
-0.012999
-0.042011
-0.035983
0.003014
0.012999
-0.016955
-0.024020
0.014035
0.040033
0.030048
0.032026
0.055010
0.038055
-0.027976
-0.068951
-0.042011
0.011021
0.035983
0.032968
0.030048
0.038997
0.048982
0.048982
0.045025
0.050018
0.058024
0.051054
0.042011
0.051054
0.060002
0.040033
0.012999
0.017991
0.042011
0.050018
0.047003
0.050018
0.048982
0.035983
0.025056
0.006029
-0.089015
-0.308961
-0.592018
-0.769011
-0.684989
-0.337031
0.066973
0.261015
0.186978
0.027034
-0.047003
-0.042953
-0.032026
-0.022984
-0.011963
-0.016013
-0.030990
-0.034005
-0.029012
-0.032026
-0.037961
-0.034005
-0.017991
0.006029
0.024020
0.014035
-0.017991
-0.029012
0.000000
0.030048
0.022984
0.004050
0.001978
0.004992
-0.012999
-0.039939
-0.042953
-0.032968
-0.037961
-0.047003
-0.032968
-0.019027
-0.032026
-0.042953
-0.026940
-0.016013
-0.037961
-0.064995
-0.066031
-0.050960
-0.029012
-0.013941
-0.050018
-0.139974
-0.204027
-0.175015
-0.107006
-0.077994
-0.071965
-0.045967
-0.025998
-0.050960
-0.094949
-0.099941
-0.060944
-0.017991
-0.006029
-0.011963
-0.003014
0.022984
0.032968
0.017991
0.012057
0.022984
0.025056
0.012999
0.014035
0.025056
0.016013
-0.012999
-0.032026
-0.021006
0.009985
0.034005
0.034005
0.014035
-0.006029
-0.016013
-0.013941
-0.011021
-0.071965
-0.275992
-0.589004
-0.826941
-0.808008
-0.501967
-0.073943
0.210056
0.202049
0.025998
-0.090993
-0.087978
-0.055010
-0.045967
-0.038997
-0.019027
-0.000942
0.000000
-0.012999
-0.019969
-0.006970
0.011021
0.006970
-0.016013
-0.034946
-0.039939
-0.038997
-0.039939
-0.042011
-0.038997
-0.029954
-0.035983
-0.066031
-0.086942
-0.060944
-0.012999
0.003014
-0.019969
-0.053974
-0.077994
-0.084022
-0.063959
-0.032026
-0.011963
-0.016013
-0.032026
-0.037961
-0.037019
-0.047003
-0.060944
-0.055010
-0.029954
-0.017991
-0.038997
-0.069987
-0.076958
-0.060002
-0.042953
-0.043989
-0.060944
-0.079972
-0.082986
-0.068009
-0.064995
-0.105028
-0.154951
-0.146003
-0.079030
-0.034005
-0.050960
-0.081008
-0.068951
-0.030990
-0.008949
-0.003956
0.004992
0.001978
-0.025998
-0.042953
-0.013941
0.022984
0.019969
-0.006970
-0.016013
0.004050
0.035983
0.048040
0.022984
-0.006029
0.000000
0.019969
-0.000942
-0.107006
-0.314989
-0.587026
-0.795009
-0.774003
-0.449971
0.008007
0.262993
0.175015
-0.037019
-0.115955
-0.071965
-0.037019
-0.040975
-0.051996
-0.055010
-0.045025
-0.027976
-0.019969
-0.017991
-0.014977
-0.011963
-0.011021
-0.011021
-0.011021
-0.008949
0.000000
0.011021
0.016013
0.006970
-0.008949
-0.013941
-0.011021
-0.027976
-0.061981
-0.073943
-0.063017
-0.060944
-0.071023
-0.063017
-0.040975
-0.030990
-0.039939
-0.056988
-0.069987
-0.079030
-0.084022
-0.086942
-0.084964
-0.073943
-0.055952
-0.047003
-0.060944
-0.079030
-0.066973
-0.035983
-0.037019
-0.063017
-0.063017
-0.039939
-0.042011
-0.069987
-0.087978
-0.110020
-0.162958
-0.201955
-0.172001
-0.110020
-0.082986
-0.087978
-0.076016
-0.058024
-0.063017
-0.074980
-0.063017
-0.051996
-0.079030
-0.124997
-0.141010
-0.120947
-0.095985
-0.079972
-0.058966
-0.042953
-0.050018
-0.064995
-0.053974
-0.034005
-0.045025
-0.068951
-0.060944
-0.026940
-0.008007
-0.019969
-0.092029
-0.272978
-0.548029
-0.782952
-0.804994
-0.548029
-0.136960
0.163994
0.178029
-0.001978
-0.136018
-0.133004
-0.089957
-0.089957
-0.103992
-0.079030
-0.032968
-0.016955
-0.047945
-0.079972
-0.068951
-0.034005
-0.021006
-0.034946
-0.042953
-0.027976
-0.011963
-0.011963
-0.019027
-0.019027
-0.012999
-0.011963
-0.021006
-0.032026
-0.038997
-0.038997
-0.032026
-0.029954
-0.040975
-0.055010
-0.052938
-0.037961
-0.026940
-0.029954
-0.037961
-0.042953
-0.043989
-0.043989
-0.042011
-0.040975
-0.043989
-0.048982
-0.051996
-0.055010
-0.066973
-0.087978
-0.097963
-0.092971
-0.090993
-0.089015
-0.066973
-0.032968
-0.024020
-0.051996
-0.084964
-0.090993
-0.081950
-0.077994
-0.060002
-0.021006
-0.017991
-0.094007
-0.178971
-0.180007
-0.128953
-0.099941
-0.077994
-0.024962
0.003014
-0.042953
-0.099941
-0.081950
-0.011963
0.014977
-0.016013
-0.040975
-0.037961
-0.040975
-0.039939
-0.000942
0.043989
0.038997
0.001036
-0.030990
-0.063017
-0.094949
-0.086000
-0.037961
-0.006029
-0.026940
-0.131026
-0.357000
-0.644956
-0.811022
-0.720971
-0.404946
-0.019969
0.214012
0.167008
-0.030990
-0.128953
-0.082986
-0.034946
-0.045967
-0.060944
-0.050960
-0.042011
-0.045025
-0.047003
-0.034946
-0.014977
-0.000942
0.004992
0.006029
-0.004992
-0.029954
-0.047003
-0.035983
-0.014977
-0.009985
-0.019027
-0.025998
-0.024962
-0.022984
-0.024020
-0.032968
-0.042953
-0.043989
-0.042953
-0.047003
-0.039939
-0.021006
-0.026940
-0.069987
-0.102014
-0.089015
-0.060002
-0.038997
-0.030990
-0.056988
-0.105970
-0.103992
-0.051996
-0.032968
-0.045025
-0.024962
-0.016013
-0.079030
-0.144967
-0.129990
-0.071023
-0.037019
-0.045967
-0.081008
-0.098999
-0.060002
-0.008949
-0.034005
-0.123019
-0.170965
-0.141952
-0.105028
-0.107006
-0.105028
-0.056988
0.006029
0.030048
0.012057
-0.001978
0.001978
-0.006029
-0.034005
-0.042011
-0.009985
0.022042
0.025998
0.011021
-0.000942
-0.001978
0.000000
-0.008949
-0.022984
-0.024962
-0.019969
-0.022984
-0.032026
-0.045025
-0.061981
-0.064995
-0.029012
0.004992
-0.064995
-0.296998
-0.597010
-0.769953
-0.673026
-0.331945
0.051054
0.246980
0.194984
0.042011
-0.047945
-0.058024
-0.053974
-0.053974
-0.042953
-0.026940
-0.019969
-0.017991
-0.013941
-0.003956
0.004992
0.000000
-0.012999
-0.016955
-0.011963
-0.011021
-0.003956
0.014035
0.019969
-0.000942
-0.022984
-0.014977
0.008007
0.008007
-0.016013
-0.038997
-0.056988
-0.081008
-0.097963
-0.092971
-0.089957
-0.103992
-0.115013
-0.123019
-0.146945
-0.154951
-0.108984
-0.060002
-0.076958
-0.118027
-0.120005
-0.120947
-0.149959
-0.141010
-0.092971
-0.090993
-0.118027
-0.081008
-0.019969
-0.032968
-0.066973
-0.032026
0.009043
-0.043989
-0.139974
-0.155988
-0.089015
-0.048982
-0.076958
-0.094949
-0.051996
-0.008949
-0.021006
-0.060002
-0.069987
-0.047945
-0.017991
0.006029
0.012057
-0.000942
-0.014977
-0.014977
-0.011021
-0.011021
-0.012999
-0.017991
-0.032026
-0.038997
-0.032968
-0.032026
-0.037961
-0.034005
-0.021006
-0.024962
-0.052938
-0.074980
-0.063017
-0.032968
-0.022984
-0.032968
-0.029954
-0.055010
-0.204027
-0.475027
-0.701002
-0.696952
-0.439987
-0.081950
0.165972
0.196021
0.077994
-0.032968
-0.063959
-0.047003
-0.017991
0.008007
0.012057
-0.011021
-0.026940
-0.008949
0.034005
0.063017
0.051996
0.006970
-0.034005
-0.050960
-0.050960
-0.037019
-0.011963
-0.006029
-0.037961
-0.079030
-0.086942
-0.052938
-0.009985
0.004992
-0.009985
-0.025998
-0.026940
-0.027976
-0.034005
-0.026940
-0.017991
-0.032968
-0.061981
-0.060002
-0.025998
-0.008949
-0.014977
-0.011021
0.004050
0.009043
0.006970
-0.011963
-0.076958
-0.154009
-0.160980
-0.092971
-0.019969
0.014035
-0.004992
-0.081008
-0.155988
-0.152031
-0.112940
-0.113976
-0.120005
-0.079030
-0.050960
-0.089015
-0.147981
-0.165972
-0.144967
-0.105970
-0.066031
-0.045967
-0.060944
-0.094007
-0.110962
-0.092029
-0.055952
-0.043989
-0.066973
-0.086000
-0.060944
-0.032968
-0.068951
-0.131026
-0.118969
-0.063017
-0.076958
-0.144967
-0.149959
-0.099941
-0.092029
-0.118027
-0.110962
-0.092029
-0.111998
-0.157966
-0.248016
-0.454964
-0.738963
-0.886002
-0.733028
-0.342965
0.038997
0.183022
0.072059
-0.110020
-0.194984
-0.178029
-0.131968
-0.100977
-0.097021
-0.105970
-0.094007
-0.060002
-0.047945
-0.076958
-0.110962
-0.110962
-0.086942
-0.069987
-0.066973
-0.066973
-0.071023
-0.073943
-0.066973
-0.053974
-0.047945
-0.048982
-0.050960
-0.055010
-0.058024
-0.058966
-0.071023
-0.097021
-0.108984
-0.086000
-0.050018
-0.045025
-0.081008
-0.111998
-0.097021
-0.061981
-0.064995
-0.099941
-0.097963
-0.042953
-0.006970
-0.040975
-0.100977
-0.113976
-0.074980
-0.038997
-0.047945
-0.077994
-0.076016
-0.039939
-0.019027
-0.032968
-0.050960
-0.048982
-0.042011
-0.052938
-0.081950
-0.107006
-0.118969
-0.133004
-0.152973
-0.144967
-0.089015
-0.017991
0.017049
-0.016013
-0.092029
-0.131968
-0.092029
-0.034946
-0.038997
-0.073943
-0.073001
-0.058966
-0.086000
-0.118027
-0.087978
-0.024020
-0.006029
-0.050960
-0.120005
-0.162016
-0.149959
-0.102956
-0.071023
-0.079030
-0.120005
-0.228989
-0.430944
-0.644014
-0.743955
-0.666997
-0.389969
-0.008007
0.194042
0.048040
-0.207983
-0.261957
-0.147981
-0.079972
-0.099941
-0.125939
-0.131026
-0.131968
-0.133004
-0.136960
-0.142989
-0.141010
-0.120947
-0.107948
-0.131968
-0.176993
-0.194984
-0.173979
-0.152031
-0.141010
-0.112940
-0.076016
-0.076958
-0.120947
-0.160980
-0.159944
-0.136018
-0.116991
-0.121983
-0.165030
-0.230967
-0.258943
-0.222960
-0.210998
-0.322996
-0.481998
-0.481998
-0.274956
-0.060944
-0.025998
-0.123019
-0.197999
-0.212976
-0.223997
-0.235017
-0.219004
-0.202991
-0.219946
-0.225975
-0.183964
-0.165972
-0.238032
-0.305947
-0.258943
-0.154951
-0.125939
-0.176993
-0.217026
-0.222960
-0.233981
-0.262993
-0.284941
-0.267986
-0.219004
-0.196021
-0.219004
-0.214012
-0.168987
-0.185000
-0.279007
-0.314989
-0.243966
-0.181985
-0.175015
-0.154951
-0.136960
-0.199977
-0.272978
-0.232945
-0.146945
-0.162016
-0.241988
-0.251973
-0.193006
-0.165030
-0.186978
-0.211940
-0.222019
-0.227953
-0.272978
-0.420959
-0.665019
-0.868952
-0.877995
-0.641000
-0.259979
0.037019
0.077994
-0.051996
-0.149959
-0.175015
-0.201013
-0.217026
-0.214012
-0.275992
-0.396939
-0.408996
-0.245002
-0.064995
-0.040975
-0.133004
-0.183022
-0.138938
-0.098999
-0.126975
-0.176993
-0.194984
-0.173979
-0.116991
-0.064995
-0.079030
-0.144967
-0.175015
-0.162016
-0.186978
-0.248958
-0.258943
-0.198941
-0.154009
-0.167950
-0.191970
-0.196021
-0.215990
-0.277971
-0.331003
-0.323938
-0.290970
-0.309997
-0.357000
-0.318004
-0.172943
-0.060944
-0.089015
-0.172001
-0.186978
-0.175957
-0.233981
-0.293984
-0.243024
-0.160980
-0.191028
-0.266008
-0.243966
-0.172943
-0.185000
-0.246980
-0.243966
-0.185000
-0.162958
-0.198941
-0.223997
-0.183022
-0.102014
-0.055010
-0.074980
-0.133004
-0.185942
-0.197999
-0.157024
-0.105970
-0.102956
-0.142989
-0.178971
-0.193948
-0.175015
-0.116991
-0.069987
-0.082986
-0.133004
-0.172001
-0.193006
-0.199977
-0.191970
-0.167950
-0.129990
-0.136018
-0.284941
-0.546993
-0.730014
-0.696010
-0.482940
-0.196021
0.046062
0.108042
-0.019027
-0.146945
-0.128012
-0.040975
-0.038997
-0.128012
-0.199977
-0.209961
-0.220982
-0.264972
-0.300954
-0.342965
-0.444979
-0.517980
-0.428024
-0.261015
-0.207983
-0.228989
-0.165972
-0.081950
-0.128953
-0.230967
-0.217026
-0.107006
-0.060944
-0.123019
-0.201013
-0.222019
-0.204027
-0.185000
-0.163994
-0.146945
-0.160980
-0.206005
-0.238974
-0.246980
-0.264972
-0.305005
-0.313011
-0.256965
-0.191028
-0.204027
-0.287013
-0.332981
-0.282021
-0.214954
-0.217968
-0.258001
-0.261957
-0.238032
-0.240952
-0.267986
-0.274014
-0.243966
-0.197999
-0.172001
-0.175015
-0.172943
-0.137996
-0.107948
-0.120005
-0.141010
-0.136018
-0.123019
-0.136960
-0.163994
-0.160980
-0.118027
-0.079972
-0.084964
-0.120947
-0.149959
-0.157024
-0.146945
-0.141952
-0.146003
-0.136960
-0.124997
-0.142989
-0.160980
-0.136960
-0.144025
-0.297940
-0.564984
-0.785966
-0.816957
-0.580997
-0.152973
0.194042
0.230025
0.056988
-0.060944
-0.056988
-0.047945
-0.084964
-0.115013
-0.102014
-0.073943
-0.073943
-0.099941
-0.116991
-0.100977
-0.071023
-0.060002
-0.071965
-0.077994
-0.055952
-0.030990
-0.032026
-0.055952
-0.077994
-0.086000
-0.073943
-0.045967
-0.039939
-0.084022
-0.126975
-0.115955
-0.084022
-0.092029
-0.115013
-0.102014
-0.073943
-0.079030
-0.105970
-0.120005
-0.120947
-0.120005
-0.115013
-0.112940
-0.118027
-0.113976
-0.097963
-0.084964
-0.092029
-0.112940
-0.131968
-0.136018
-0.128953
-0.124997
-0.128012
-0.126975
-0.118969
-0.124997
-0.162958
-0.202991
-0.196963
-0.146945
-0.108984
-0.107948
-0.113976
-0.107006
-0.102014
-0.110962
-0.118969
-0.102014
-0.068951
-0.058966
-0.079972
-0.095985
-0.095985
-0.102956
-0.113976
-0.100977
-0.089957
-0.113976
-0.138938
-0.120005
-0.097963
-0.123019
-0.142989
-0.107006
-0.107006
-0.267986
-0.537008
-0.744991
-0.759968
-0.527023
-0.128012
0.186978
0.219004
0.048982
-0.107006
-0.144025
-0.099941
-0.055010
-0.052938
-0.079972
-0.103992
-0.118969
-0.125939
-0.118027
-0.099941
-0.092029
-0.102014
-0.111998
-0.098999
-0.071965
-0.073001
-0.110962
-0.131026
-0.094949
-0.050018
-0.055010
-0.095985
-0.116991
-0.102956
-0.081008
-0.076016
-0.087978
-0.105970
-0.120947
-0.137996
-0.167008
-0.189992
-0.178029
-0.142989
-0.115013
-0.113976
-0.137996
-0.163994
-0.157024
-0.133946
-0.139974
-0.163994
-0.162016
-0.141010
-0.138938
-0.149017
-0.141010
-0.124997
-0.128953
-0.144025
-0.146003
-0.136018
-0.131026
-0.139974
-0.154009
-0.172001
-0.199977
-0.233981
-0.253951
-0.253009
-0.238974
-0.214012
-0.186978
-0.180007
-0.204027
-0.233981
-0.238974
-0.201955
-0.144025
-0.108984
-0.118027
-0.142989
-0.141010
-0.120947
-0.128012
-0.175015
-0.214954
-0.206005
-0.170023
-0.147981
-0.152973
-0.178971
-0.222019
-0.238974
-0.204027
-0.214012
-0.396939
-0.689981
-0.879031
-0.827977
-0.545014
-0.138938
0.159002
0.155988
-0.061981
-0.222960
-0.217026
-0.157024
-0.157024
-0.194984
-0.191970
-0.146003
-0.128012
-0.152973
-0.168987
-0.142989
-0.107948
-0.105028
-0.136018
-0.163994
-0.160980
-0.144025
-0.137996
-0.133946
-0.123961
-0.131968
-0.159944
-0.172943
-0.159944
-0.154009
-0.168987
-0.178971
-0.175957
-0.185942
-0.210998
-0.214954
-0.186978
-0.162016
-0.165972
-0.188014
-0.204027
-0.204027
-0.194984
-0.196963
-0.214954
-0.225975
-0.214954
-0.201013
-0.201955
-0.212976
-0.209020
-0.185000
-0.170965
-0.188014
-0.214954
-0.219946
-0.210998
-0.210998
-0.217968
-0.211940
-0.188014
-0.160980
-0.144967
-0.150995
-0.172943
-0.189992
-0.178971
-0.152031
-0.136018
-0.146003
-0.165972
-0.172943
-0.159944
-0.137996
-0.126975
-0.141952
-0.167008
-0.176993
-0.168987
-0.157966
-0.159944
-0.191028
-0.232003
-0.224939
-0.197999
-0.292948
-0.566020
-0.848983
-0.908985
-0.670012
-0.261015
0.074038
0.157024
0.032968
-0.110962
-0.163994
-0.157024
-0.149017
-0.141952
-0.129990
-0.125939
-0.136018
-0.144967
-0.149017
-0.159002
-0.168987
-0.162958
-0.150995
-0.152031
-0.157966
-0.146945
-0.126975
-0.116991
-0.120947
-0.133946
-0.154009
-0.172001
-0.167950
-0.144967
-0.136018
-0.154009
-0.172001
-0.172943
-0.167950
-0.170023
-0.165972
-0.154951
-0.150995
-0.162958
-0.186978
-0.207983
-0.206947
-0.183022
-0.170023
-0.185000
-0.201013
-0.197999
-0.202991
-0.227011
-0.245002
-0.241988
-0.236996
-0.240010
-0.233981
-0.219946
-0.217968
-0.230967
-0.251031
-0.279949
-0.297940
-0.269964
-0.212976
-0.183964
-0.183964
-0.172001
-0.154009
-0.160980
-0.185000
-0.219004
-0.248958
-0.235959
-0.180007
-0.159944
-0.206947
-0.248958
-0.228989
-0.183022
-0.162958
-0.168987
-0.185000
-0.209020
-0.227953
-0.217026
-0.199977
-0.206005
-0.227953
-0.310939
-0.542000
-0.843991
-0.983023
-0.825999
-0.459014
-0.074980
0.120005
0.053032
-0.118969
-0.198941
-0.175015
-0.146003
-0.149017
-0.159002
-0.157024
-0.152031
-0.154009
-0.162958
-0.162958
-0.144967
-0.123019
-0.123961
-0.141952
-0.141010
-0.113976
-0.095985
-0.110962
-0.120005
-0.094007
-0.063959
-0.074980
-0.115013
-0.139974
-0.131026
-0.110962
-0.108984
-0.131968
-0.157024
-0.163994
-0.154951
-0.149017
-0.146003
-0.134982
-0.120005
-0.123019
-0.144025
-0.159944
-0.154009
-0.141952
-0.136960
-0.133004
-0.124997
-0.129990
-0.146945
-0.149959
-0.131026
-0.125939
-0.152031
-0.180007
-0.193006
-0.210998
-0.230025
-0.219004
-0.180949
-0.152031
-0.141010
-0.124997
-0.107006
-0.113976
-0.144025
-0.154951
-0.138938
-0.131026
-0.149017
-0.165030
-0.152031
-0.116991
-0.089957
-0.094007
-0.118969
-0.137996
-0.136018
-0.131968
-0.146003
-0.172943
-0.183964
-0.154009
-0.128953
-0.230967
-0.491982
-0.761946
-0.869989
-0.759968
-0.443943
-0.034946
0.199035
0.111056
-0.107006
-0.196963
-0.157966
-0.128953
-0.144025
-0.167008
-0.178971
-0.180949
-0.162016
-0.126975
-0.107948
-0.124997
-0.144967
-0.136018
-0.118969
-0.116991
-0.125939
-0.137996
-0.146945
-0.141010
-0.113976
-0.090993
-0.092029
-0.113976
-0.131968
-0.136960
-0.147981
-0.172001
-0.175957
-0.144967
-0.118027
-0.133004
-0.168987
-0.178971
-0.162958
-0.157024
-0.167950
-0.167008
-0.146945
-0.136960
-0.146945
-0.162016
-0.172943
-0.178029
-0.170023
-0.154951
-0.147981
-0.146003
-0.139974
-0.138938
-0.154951
-0.172001
-0.170965
-0.159944
-0.157966
-0.172001
-0.193006
-0.201013
-0.209020
-0.240010
-0.267986
-0.235017
-0.159002
-0.118969
-0.133004
-0.146945
-0.131968
-0.112940
-0.110962
-0.120947
-0.125939
-0.129990
-0.137996
-0.137996
-0.120005
-0.102956
-0.105970
-0.121983
-0.136018
-0.146945
-0.157966
-0.155988
-0.141952
-0.144967
-0.155988
-0.136960
-0.121983
-0.232945
-0.496975
-0.778996
-0.897023
-0.756954
-0.399954
-0.019969
0.137996
0.030048
-0.146945
-0.211940
-0.183964
-0.165030
-0.172001
-0.175015
-0.172001
-0.167008
-0.141952
-0.123961
-0.163994
-0.236996
-0.245002
-0.175015
-0.120947
-0.136960
-0.165030
-0.144967
-0.112940
-0.123019
-0.152031
-0.162958
-0.180007
-0.217026
-0.217026
-0.159002
-0.110962
-0.116991
-0.141010
-0.147981
-0.150995
-0.162958
-0.172943
-0.173979
-0.175957
-0.188956
-0.196021
-0.173979
-0.136018
-0.125939
-0.147981
-0.165972
-0.159944
-0.155988
-0.165972
-0.159944
-0.126975
-0.108984
-0.126975
-0.142989
-0.131968
-0.124997
-0.144967
-0.170965
-0.185942
-0.201013
-0.219004
-0.219946
-0.186978
-0.128012
-0.089015
-0.099941
-0.134982
-0.142989
-0.123019
-0.112940
-0.126975
-0.138938
-0.124997
-0.105970
-0.110020
-0.128012
-0.123961
-0.094949
-0.079030
-0.097963
-0.129990
-0.138938
-0.120005
-0.110962
-0.131968
-0.131968
-0.102014
-0.162958
-0.400990
-0.688945
-0.838998
-0.778996
-0.512988
-0.118027
0.171059
0.163994
-0.029954
-0.157024
-0.149959
-0.115955
-0.118969
-0.123961
-0.107006
-0.094949
-0.102956
-0.111998
-0.107006
-0.090993
-0.073001
-0.060002
-0.060002
-0.069987
-0.081950
-0.095985
-0.105028
-0.090993
-0.068009
-0.081950
-0.124997
-0.136018
-0.103992
-0.082986
-0.095985
-0.116991
-0.131968
-0.138938
-0.133004
-0.123019
-0.124997
-0.131026
-0.123019
-0.110962
-0.113976
-0.121983
-0.118027
-0.107006
-0.113976
-0.141010
-0.152973
-0.133946
-0.112940
-0.120947
-0.142989
-0.146003
-0.131026
-0.115013
-0.103992
-0.100977
-0.110962
-0.125939
-0.128012
-0.124997
-0.136018
-0.152973
-0.152031
-0.144025
-0.150995
-0.168987
-0.180007
-0.183022
-0.175015
-0.149959
-0.120005
-0.110020
-0.118027
-0.123961
-0.123019
-0.116991
-0.107006
-0.099941
-0.102014
-0.107006
-0.099941
-0.084964
-0.089015
-0.115013
-0.125939
-0.105970
-0.092971
-0.115955
-0.138938
-0.129990
-0.116991
-0.123961
-0.136018
-0.168987
-0.290028
-0.509032
-0.730014
-0.816957
-0.678018
-0.342965
-0.012999
0.090051
-0.032026
-0.188956
-0.269022
-0.296998
-0.269022
-0.168987
-0.071023
-0.048982
-0.071965
-0.099941
-0.136018
-0.155988
-0.128953
-0.089015
-0.082986
-0.098999
-0.112940
-0.120005
-0.105970
-0.073943
-0.063017
-0.086942
-0.102956
-0.089957
-0.081008
-0.094949
-0.100977
-0.086942
-0.074980
-0.081950
-0.094007
-0.100977
-0.102956
-0.105970
-0.110020
-0.113976
-0.120005
-0.128012
-0.129990
-0.118027
-0.095985
-0.079030
-0.082986
-0.102014
-0.113976
-0.110020
-0.107006
-0.123961
-0.136960
-0.116991
-0.084964
-0.073001
-0.076958
-0.084964
-0.105970
-0.136018
-0.162016
-0.183022
-0.191970
-0.155988
-0.090993
-0.068009
-0.102014
-0.123019
-0.102956
-0.077994
-0.068009
-0.069987
-0.094949
-0.131968
-0.138938
-0.108984
-0.079972
-0.073001
-0.081008
-0.095985
-0.112940
-0.123961
-0.120005
-0.102014
-0.089015
-0.102014
-0.115955
-0.105028
-0.123019
-0.266950
-0.519958
-0.741977
-0.800001
-0.642978
-0.313011
0.022042
0.158060
0.066031
-0.079972
-0.124997
-0.092029
-0.076958
-0.100977
-0.120005
-0.108984
-0.087978
-0.076958
-0.074980
-0.081008
-0.089957
-0.086942
-0.066973
-0.047003
-0.042011
-0.051996
-0.061981
-0.061981
-0.052938
-0.048982
-0.050960
-0.050018
-0.047945
-0.058966
-0.073001
-0.068009
-0.050960
-0.042953
-0.047003
-0.053974
-0.060002
-0.060002
-0.055010
-0.052938
-0.055010
-0.055952
-0.060002
-0.064995
-0.058966
-0.048982
-0.050018
-0.060002
-0.063959
-0.063017
-0.066973
-0.066031
-0.050960
-0.035983
-0.032968
-0.040975
-0.060002
-0.084964
-0.097021
-0.092971
-0.094007
-0.116991
-0.146945
-0.154009
-0.118969
-0.055010
-0.003014
0.004992
-0.012999
-0.025998
-0.024962
-0.027976
-0.037961
-0.042011
-0.030990
-0.011021
-0.004992
-0.016013
-0.030990
-0.042011
-0.043989
-0.029954
-0.012999
-0.021948
-0.051996
-0.068951
-0.076958
-0.099941
-0.113976
-0.116991
-0.212976
-0.465985
-0.748006
-0.835984
-0.618958
-0.199977
0.152973
0.212976
0.042011
-0.102014
-0.092971
-0.032968
-0.027976
-0.056988
-0.068951
-0.061981
-0.055952
-0.053974
-0.055952
-0.060944
-0.058024
-0.037961
-0.016955
-0.009985
-0.011021
-0.014977
-0.026940
-0.045025
-0.055952
-0.055010
-0.042953
-0.021948
-0.008007
-0.019969
-0.050018
-0.058024
-0.034005
-0.008949
-0.008007
-0.030990
-0.055010
-0.060002
-0.055952
-0.069987
-0.082986
-0.061981
-0.027976
-0.025998
-0.038997
-0.038997
-0.040975
-0.060002
-0.068951
-0.053974
-0.042953
-0.050018
-0.053974
-0.043989
-0.034946
-0.037961
-0.052938
-0.084022
-0.125939
-0.155988
-0.138938
-0.081950
-0.034005
-0.032026
-0.047945
-0.037019
-0.004992
0.009043
-0.003956
-0.022984
-0.032026
-0.026940
-0.019969
-0.021948
-0.024962
-0.011021
0.014035
0.017991
-0.008007
-0.034005
-0.030990
-0.012999
-0.016013
-0.034946
-0.026940
0.006029
-0.043989
-0.253009
-0.537008
-0.712965
-0.670954
-0.415025
-0.043989
0.240010
0.262993
0.087978
-0.051996
-0.053974
-0.013941
-0.017991
-0.037961
-0.030990
-0.011021
-0.000942
0.009043
0.038055
0.073001
0.079972
0.055010
0.030048
0.029012
0.043047
0.056046
0.059061
0.045025
0.022984
0.022042
0.045025
0.063017
0.059061
0.048040
0.043989
0.040033
0.030990
0.022042
0.012057
-0.000942
-0.009985
-0.008949
0.000000
0.006029
0.009985
0.019027
0.027976
0.030048
0.021006
0.009043
-0.012999
-0.043989
-0.055952
-0.035983
-0.034946
-0.089015
-0.141010
-0.116991
-0.037961
0.016013
0.012999
-0.024020
-0.058966
-0.058966
-0.022984
0.008007
0.006029
-0.003956
0.006029
0.022984
0.027976
0.024020
0.012057
0.004992
0.021006
0.048040
0.051996
0.037019
0.021006
0.004992
-0.003956
0.017991
0.063017
0.079030
0.043989
-0.012999
-0.040975
-0.004992
0.053974
-0.000942
-0.245944
-0.556977
-0.725022
-0.654940
-0.381962
-0.014977
0.261015
0.293042
0.137996
-0.003956
-0.024020
0.014977
0.030990
0.016013
0.000000
-0.000942
0.019027
0.048982
0.055010
0.025056
-0.003014
0.001978
0.030048
0.055010
0.050018
0.009985
-0.017991
0.008007
0.058024
0.074038
0.053974
0.027034
0.009043
0.006029
0.014035
0.022042
0.030990
0.042011
0.037019
0.009043
-0.008949
0.000000
0.008007
-0.000942
0.001978
0.027034
0.043989
0.029012
0.004992
-0.003014
-0.001978
-0.001978
-0.003014
0.003014
0.008007
0.004992
-0.003956
-0.008949
-0.006970
0.000000
0.001036
-0.021006
-0.055952
-0.069987
-0.038997
0.003014
0.022984
0.032026
0.047003
0.051996
0.035041
0.017049
0.022042
0.037019
0.040975
0.042011
0.051996
0.064995
0.064995
0.047003
0.025056
0.027034
0.051996
0.068009
0.053974
0.024020
0.004992
0.012057
0.027034
-0.024962
-0.207983
-0.472955
-0.663983
-0.641942
-0.376028
0.004992
0.262993
0.254045
0.082044
-0.037019
-0.032026
0.011021
0.019969
0.009043
0.004050
0.003014
0.008007
0.027976
0.045025
0.032026
0.004992
0.014035
0.064053
0.103050
0.092029
0.059061
0.040033
0.038997
0.050018
0.068009
0.077994
0.066973
0.050018
0.051054
0.061981
0.060002
0.048982
0.046062
0.051054
0.051054
0.047003
0.053032
0.063017
0.061039
0.050018
0.042011
0.042011
0.043047
0.040975
0.032968
0.027034
0.035041
0.056046
0.064053
0.048040
0.030048
0.024020
0.016013
-0.001978
-0.016013
-0.013941
-0.001978
0.019969
0.053974
0.085058
0.090051
0.072059
0.056988
0.061039
0.077994
0.090051
0.090993
0.079972
0.056988
0.032968
0.025998
0.030990
0.017991
-0.013941
-0.029954
-0.030990
-0.064995
-0.123019
-0.115013
-0.000942
0.131026
0.163994
0.043047
-0.206947
-0.477005
-0.613024
-0.540022
-0.297940
0.000000
0.191028
0.170023
0.030048
-0.038997
0.004050
0.050018
0.048982
0.043047
0.058024
0.063017
0.051054
0.055010
0.082986
0.092971
0.063017
0.035041
0.043047
0.059061
0.060002
0.066973
0.082044
0.077052
0.056046
0.058024
0.079972
0.086000
0.074980
0.064053
0.051054
0.040033
0.053974
0.082986
0.086000
0.060002
0.038997
0.040975
0.051054
0.058024
0.061039
0.056988
0.043989
0.032968
0.035983
0.051054
0.069987
0.087037
0.092029
0.074038
0.043989
0.022984
0.016013
0.004992
-0.004992
0.009985
0.058024
0.103992
0.110020
0.082986
0.060002
0.063017
0.076016
0.085058
0.087978
0.092971
0.092029
0.077994
0.064053
0.069045
0.082986
0.087037
0.081008
0.077052
0.076016
0.074980
0.076016
0.077994
0.082986
0.087037
0.042011
-0.113976
-0.352950
-0.559992
-0.608973
-0.423031
-0.061981
0.241046
0.285035
0.136018
0.014035
0.004992
0.030048
0.035041
0.032968
0.032026
0.022984
-0.004992
-0.060944
-0.097021
-0.042953
0.066973
0.118027
0.087978
0.068009
0.097021
0.120005
0.107006
0.087037
0.077994
0.066031
0.051054
0.046062
0.053032
0.066973
0.079972
0.087978
0.092029
0.100035
0.105970
0.098057
0.085058
0.087037
0.100035
0.100035
0.085058
0.077052
0.079972
0.077994
0.064995
0.058024
0.066031
0.076016
0.074980
0.059061
0.038997
0.025056
0.016013
0.008007
0.009043
0.038055
0.082986
0.107006
0.097021
0.079030
0.072059
0.066973
0.059061
0.060002
0.077994
0.095043
0.097021
0.095985
0.100977
0.102014
0.092029
0.085058
0.087037
0.089015
0.094007
0.111056
0.116049
0.090993
0.073001
0.082986
0.037019
-0.146003
-0.407018
-0.589004
-0.555941
-0.279007
0.095985
0.313011
0.264972
0.107006
0.029012
0.046062
0.071023
0.068009
0.059061
0.053974
0.048040
0.045025
0.059061
0.077994
0.082044
0.073001
0.071023
0.085058
0.102014
0.107006
0.095043
0.071023
0.050018
0.048040
0.069045
0.087978
0.081008
0.066973
0.079972
0.107006
0.105970
0.071023
0.043989
0.047003
0.064053
0.074038
0.074038
0.074038
0.068009
0.056046
0.043047
0.042011
0.051996
0.058024
0.046062
0.022984
0.019027
0.035983
0.038055
0.009985
-0.004992
0.009985
0.008007
-0.040975
-0.081950
-0.056988
0.012057
0.053032
0.045025
0.022042
0.012057
0.009985
0.012999
0.032968
0.058024
0.055010
0.019969
0.003014
0.030990
0.069045
0.068009
0.040033
0.027034
0.035983
0.040975
0.032968
0.027034
0.030990
0.038997
0.043989
0.006029
-0.142989
-0.391947
-0.611987
-0.666997
-0.503003
-0.170023
0.154009
0.246038
0.100977
-0.055010
-0.077994
-0.040975
-0.035983
-0.040975
-0.029954
-0.027976
-0.047003
-0.060002
-0.060002
-0.061981
-0.051996
-0.003956
0.051996
0.066031
0.032026
-0.004992
-0.012999
0.006970
0.030990
0.032026
0.014035
0.014035
0.030048
0.016013
-0.032968
-0.058966
-0.034005
0.001978
0.009043
0.000000
-0.008007
-0.006029
-0.001978
-0.014977
-0.045967
-0.061981
-0.035983
0.004050
0.016013
-0.016955
-0.058966
-0.055952
-0.004992
0.030990
0.016013
-0.016013
-0.029012
-0.039939
-0.064995
-0.089015
-0.098999
-0.099941
-0.087978
-0.050018
0.001036
0.030990
0.029012
0.022984
0.027034
0.022984
0.001036
-0.016955
-0.013941
0.003014
0.017991
0.027976
0.032968
0.032026
0.029012
0.032968
0.035983
0.024020
0.011021
0.016013
0.024020
0.014977
0.012999
0.011021
-0.079030
-0.295020
-0.530979
-0.655977
-0.628001
-0.420959
-0.066973
0.227011
0.241988
0.050018
-0.089015
-0.081008
-0.026940
-0.004992
-0.012999
-0.022984
-0.008949
0.017049
0.008007
-0.030990
-0.035983
0.001036
0.025998
0.022984
0.027034
0.035041
0.032026
0.037019
0.056046
0.056988
0.035983
0.022042
0.027034
0.034005
0.029012
0.014035
0.004050
0.017049
0.038055
0.038055
0.017991
0.008007
0.006029
-0.003014
-0.012999
-0.009985
-0.004992
-0.006970
-0.004992
0.000000
-0.000942
-0.003956
0.004050
0.016013
0.017991
0.012999
0.009985
0.012057
0.006029
-0.014977
-0.047945
-0.076016
-0.073001
-0.026940
0.030048
0.051996
0.037019
0.019969
0.021006
0.029012
0.037019
0.034005
0.009985
-0.016013
-0.012999
0.022042
0.051054
0.055010
0.047003
0.042011
0.040975
0.040033
0.042011
0.045025
0.042011
0.040975
0.058024
0.056988
-0.048982
-0.283999
-0.535030
-0.644956
-0.525987
-0.196963
0.165972
0.298976
0.150995
-0.035983
-0.060944
0.004992
0.024020
-0.001978
-0.019969
-0.026940
-0.039939
-0.066973
-0.110962
-0.139974
-0.102014
-0.004992
0.076016
0.100035
0.086000
0.069987
0.069045
0.064995
0.040033
0.014035
0.022984
0.055010
0.077994
0.079972
0.069045
0.053032
0.047003
0.056046
0.061981
0.051054
0.043989
0.047003
0.032968
0.006029
0.006029
0.038055
0.061039
0.051054
0.030048
0.027976
0.047003
0.060002
0.046062
0.016013
-0.000942
0.001978
0.004050
-0.011963
-0.034946
-0.037961
-0.001978
0.056988
0.090051
0.069987
0.034005
0.035041
0.063017
0.066973
0.034005
0.012057
0.025998
0.050018
0.048982
0.034005
0.035983
0.060002
0.081008
0.077052
0.046062
0.012057
-0.001978
0.006029
0.019969
0.032968
0.029012
-0.045025
-0.224939
-0.456000
-0.619994
-0.621030
-0.417003
-0.056988
0.249995
0.287013
0.102014
-0.040975
-0.029012
0.022984
0.025056
0.019027
0.035983
0.048040
0.038055
0.034005
0.045025
0.056988
0.056046
0.055010
0.064995
0.074980
0.074038
0.069045
0.066973
0.069045
0.074980
0.082986
0.085058
0.079030
0.071023
0.069987
0.077052
0.085058
0.079972
0.061039
0.048040
0.056988
0.077052
0.084022
0.077994
0.071023
0.069987
0.072059
0.074038
0.071023
0.056046
0.038055
0.038055
0.051054
0.053032
0.038055
0.027976
0.032026
0.027034
0.006970
-0.008007
-0.011021
-0.003014
0.022984
0.063017
0.090051
0.097021
0.103992
0.110020
0.100035
0.081008
0.074038
0.092029
0.116991
0.121041
0.092029
0.064053
0.074038
0.098999
0.097021
0.077052
0.081008
0.113034
0.133004
0.116991
0.082986
0.064995
0.074980
0.073001
-0.026940
-0.256023
-0.509032
-0.608031
-0.456942
-0.123019
0.197999
0.301990
0.178029
0.038997
0.043989
0.102014
0.079972
0.019969
0.022984
0.082044
0.126975
0.129048
0.103992
0.082986
0.090051
0.118969
0.137054
0.133004
0.121041
0.118027
0.121041
0.124055
0.126033
0.126975
0.124055
0.118027
0.110020
0.107006
0.110020
0.111998
0.108042
0.108984
0.118969
0.128012
0.131026
0.126033
0.110020
0.087037
0.082044
0.105970
0.133004
0.137996
0.129990
0.128012
0.126033
0.111998
0.098999
0.113034
0.147039
0.171059
0.163052
0.142989
0.133004
0.123019
0.086000
0.034005
0.019027
0.066973
0.139974
0.175015
0.167008
0.162016
0.180007
0.183022
0.150053
0.124997
0.145061
0.184058
0.197999
0.188014
0.181044
0.178971
0.163052
0.137054
0.137054
0.170023
0.193006
0.173979
0.146003
0.152973
0.168045
0.147981
0.121041
0.111998
0.038997
-0.199977
-0.524009
-0.689981
-0.548029
-0.186978
0.160038
0.306983
0.244060
0.118027
0.061981
0.072059
0.092971
0.111998
0.129990
0.118027
0.074038
0.038997
0.043047
0.077052
0.118027
0.150053
0.159002
0.139974
0.110020
0.095985
0.113034
0.146003
0.152031
0.113976
0.077994
0.102014
0.160038
0.175015
0.134040
0.098999
0.095043
0.089015
0.073001
0.069987
0.076016
0.076016
0.089015
0.121041
0.134982
0.111056
0.087037
0.090993
0.108042
0.118969
0.123019
0.118027
0.110020
0.107006
0.107006
0.102014
0.110020
0.139032
0.152031
0.129990
0.105028
0.100977
0.090993
0.061039
0.051996
0.086000
0.129990
0.152031
0.160038
0.165030
0.157024
0.137996
0.131026
0.142989
0.152973
0.145061
0.132062
0.133004
0.142989
0.146003
0.142989
0.134982
0.120005
0.115013
0.129048
0.129990
0.097021
0.077994
0.110020
0.118969
-0.004992
-0.253009
-0.475027
-0.532957
-0.386955
-0.092971
0.215990
0.363029
0.279007
0.108984
0.032968
0.061039
0.098999
0.120005
0.137996
0.137996
0.118027
0.116049
0.139974
0.155046
0.139032
0.116049
0.116991
0.142047
0.163052
0.155988
0.137054
0.142989
0.175015
0.191970
0.171059
0.141010
0.137996
0.158060
0.172001
0.168045
0.152973
0.142047
0.136018
0.134040
0.139974
0.147039
0.142047
0.131026
0.137996
0.158060
0.158060
0.132062
0.113034
0.126975
0.155046
0.163052
0.146003
0.124997
0.108984
0.107006
0.136018
0.186978
0.202991
0.147039
0.069987
0.043047
0.071023
0.111998
0.146003
0.176051
0.193006
0.194984
0.189050
0.181044
0.168045
0.167008
0.185000
0.207983
0.212976
0.196021
0.176051
0.181985
0.204027
0.204027
0.186036
0.194984
0.227011
0.233981
0.212034
0.199977
0.210056
0.215990
0.188014
0.087978
-0.102956
-0.334017
-0.482940
-0.412953
-0.108984
0.256023
0.439045
0.373014
0.227011
0.155988
0.147981
0.155046
0.181985
0.204027
0.186978
0.163994
0.176993
0.199977
0.204027
0.197057
0.181044
0.172001
0.189050
0.212034
0.210998
0.210056
0.227011
0.231061
0.206005
0.201013
0.232003
0.240010
0.202991
0.178029
0.197057
0.218062
0.212976
0.209020
0.220982
0.225033
0.210056
0.197057
0.199035
0.197057
0.184058
0.175015
0.181044
0.189050
0.183022
0.176051
0.178971
0.185000
0.184058
0.186036
0.197999
0.207983
0.209020
0.202049
0.191028
0.168987
0.142989
0.141010
0.181044
0.231061
0.243024
0.225033
0.219004
0.225975
0.219004
0.197999
0.185000
0.176051
0.158060
0.150053
0.168987
0.189992
0.197057
0.209020
0.225975
0.215990
0.176051
0.142047
0.134982
0.145061
0.158060
0.176993
0.191970
0.139032
-0.047945
-0.324974
-0.530979
-0.519958
-0.274956
0.066973
0.301048
0.324032
0.210056
0.103050
0.066031
0.077052
0.098057
0.107006
0.110020
0.129990
0.168045
0.189050
0.168045
0.132062
0.126033
0.155046
0.181044
0.178971
0.165972
0.170023
0.186978
0.189992
0.171059
0.154009
0.155988
0.163052
0.162016
0.157024
0.160038
0.168045
0.171059
0.160038
0.139974
0.123019
0.124997
0.147039
0.165030
0.162016
0.152973
0.160980
0.178029
0.175015
0.150053
0.129048
0.131026
0.147981
0.168045
0.183022
0.186036
0.167008
0.132062
0.098999
0.084022
0.086000
0.108984
0.155988
0.210056
0.236996
0.225975
0.196021
0.171059
0.162016
0.178971
0.220040
0.256023
0.248016
0.202991
0.165030
0.168045
0.201013
0.236996
0.264030
0.262052
0.215990
0.167008
0.171059
0.202991
0.210998
0.196021
0.145061
0.000000
-0.217026
-0.386955
-0.420017
-0.267986
0.056988
0.379042
0.460992
0.305005
0.152031
0.139032
0.186036
0.202991
0.204027
0.210056
0.204969
0.197057
0.210056
0.233039
0.233981
0.218062
0.207041
0.209020
0.218062
0.228047
0.238032
0.241988
0.233039
0.219004
0.218062
0.238974
0.266008
0.272036
0.248016
0.210056
0.193006
0.210056
0.232003
0.231061
0.219004
0.215048
0.212976
0.202049
0.197999
0.214012
0.233039
0.227011
0.204969
0.202991
0.222019
0.220982
0.196021
0.199035
0.235017
0.249053
0.220040
0.194042
0.194984
0.185000
0.139032
0.095043
0.095985
0.136018
0.178029
0.199977
0.199035
0.176051
0.146003
0.137054
0.155046
0.181985
0.204969
0.214012
0.191028
0.149017
0.139032
0.176051
0.204969
0.186978
0.163994
0.178971
0.193006
0.167008
0.139032
0.160038
0.197999
0.199035
0.154009
0.053974
-0.142989
-0.392983
-0.512988
-0.363029
-0.019969
0.283999
0.368021
0.254045
0.118027
0.087978
0.128012
0.147039
0.136018
0.134040
0.150053
0.158060
0.145061
0.142047
0.176051
0.210998
0.193006
0.149017
0.150053
0.191970
0.199977
0.154009
0.124055
0.163052
0.210056
0.185000
0.121041
0.107006
0.137054
0.146003
0.134982
0.136018
0.126975
0.097021
0.095985
0.136018
0.158060
0.144025
0.142047
0.158060
0.145061
0.108984
0.100977
0.124055
0.131026
0.116049
0.111998
0.128012
0.132062
0.111056
0.095985
0.111998
0.113976
0.056046
-0.004992
0.022984
0.115013
0.159002
0.131026
0.108984
0.116049
0.111056
0.110020
0.142989
0.168045
0.139032
0.110020
0.134040
0.165030
0.146003
0.103050
0.094007
0.116049
0.121983
0.110020
0.126975
0.167008
0.168987
0.134982
0.132062
0.129048
-0.008007
-0.271000
-0.470977
-0.480962
-0.322996
-0.039939
0.274014
0.416061
0.306983
0.139974
0.105028
0.141010
0.132062
0.098999
0.116991
0.178029
0.207983
0.173979
0.129990
0.150053
0.206005
0.214012
0.171059
0.147981
0.168045
0.193006
0.197999
0.196021
0.191028
0.181985
0.181044
0.204027
0.227011
0.215990
0.181044
0.165972
0.188014
0.218062
0.219004
0.181985
0.134040
0.134040
0.197999
0.262052
0.241988
0.160980
0.121041
0.170023
0.241988
0.243024
0.178029
0.136018
0.154009
0.183022
0.183022
0.175015
0.171059
0.152031
0.123019
0.123019
0.163994
0.215048
0.238974
0.244060
0.249053
0.233039
0.185000
0.159002
0.194042
0.231061
0.222019
0.209020
0.222019
0.223997
0.201013
0.186978
0.199035
0.220040
0.222019
0.194042
0.168987
0.176051
0.212034
0.259037
0.274014
0.160038
-0.102014
-0.366985
-0.475969
-0.389027
-0.134982
0.189992
0.402026
0.395997
0.272036
0.193006
0.199977
0.236054
0.236054
0.197999
0.173979
0.194984
0.233981
0.251973
0.249995
0.243024
0.228047
0.204969
0.189992
0.194984
0.217026
0.227011
0.197999
0.160038
0.175015
0.238974
0.270058
0.241988
0.219004
0.225975
0.207983
0.155046
0.133004
0.171059
0.222019
0.230025
0.194984
0.175015
0.202049
0.231061
0.215048
0.180007
0.178029
0.199035
0.212976
0.225033
0.241046
0.236996
0.204969
0.180007
0.183022
0.191028
0.178971
0.146003
0.107006
0.108984
0.173979
0.244060
0.253009
0.220040
0.199977
0.204027
0.220982
0.241046
0.240010
0.207041
0.181985
0.207041
0.249995
0.249995
0.214012
0.201013
0.227011
0.254987
0.262052
0.258001
0.246980
0.225975
0.215048
0.206005
0.128012
-0.066031
-0.300954
-0.434994
-0.382998
-0.155988
0.155988
0.403062
0.457036
0.335995
0.186036
0.115013
0.118969
0.159002
0.227011
0.293984
0.306983
0.262052
0.223055
0.236996
0.277029
0.295020
0.288049
0.275992
0.262993
0.241046
0.223997
0.238032
0.266008
0.262052
0.231061
0.232003
0.269022
0.280985
0.249053
0.220982
0.223997
0.238032
0.246038
0.251031
0.259979
0.262052
0.233981
0.191970
0.188014
0.223997
0.235017
0.202991
0.189992
0.228989
0.271000
0.262993
0.222019
0.204969
0.225975
0.233039
0.186978
0.131026
0.123019
0.160980
0.207983
0.246980
0.266008
