---
Mammal:            mouse
Fs:                1000
Integration_level: electrocardiogram

Channels:

    - type:   electrography
      name:   Data
      unit:   mV
      enable: yes

---

-0.007029
-0.010990
-0.007978
0.025997
0.011994
-0.218019
-0.631016
-0.850988
-0.593025
-0.091994
0.206973
0.212998
0.128981
0.058968
-0.008982
-0.045021
-0.038996
-0.036987
-0.047978
-0.032022
0.011994
0.037992
0.032022
0.020976
0.027001
0.042008
0.060976
0.085969
0.105997
0.110014
0.113975
0.129986
0.144993
0.144993
0.144993
0.154979
0.154979
0.127977
0.099972
0.091994
0.089986
0.082008
0.081004
0.085021
0.076987
0.059972
0.058968
0.070014
0.067001
0.042008
0.015007
0.012999
0.040000
0.064993
0.051994
0.020976
0.018968
0.037992
0.027001
-0.009986
-0.018019
0.016011
0.050990
0.059972
0.050990
0.041004
0.045969
0.052998
0.032022
-0.001004
-0.002008
0.030014
0.056011
0.061980
0.055007
0.027001
-0.020028
-0.051994
-0.058019
-0.048982
-0.007978
0.060976
0.084016
0.037992
0.014003
0.059972
0.088982
0.054003
0.032022
0.073975
0.112022
0.097015
0.071018
0.068005
0.058968
0.031018
0.016011
0.024993
0.032022
0.031018
0.035983
0.045021
0.042008
0.033975
0.036987
0.042008
0.035983
0.024993
0.021980
0.028005
0.031018
0.031018
0.032971
0.030014
0.012999
0.012999
0.031018
-0.067001
-0.384992
-0.717989
-0.694001
-0.274978
0.168981
0.327977
0.250989
0.127977
0.041004
-0.016011
-0.038996
-0.024993
0.000000
0.012999
0.022985
0.041004
0.059972
0.068005
0.072970
0.086973
0.105997
0.112970
0.110014
0.114979
0.127977
0.137015
0.140976
0.145997
0.149009
0.140976
0.125021
0.116987
0.118995
0.117991
0.111018
0.103989
0.098968
0.095007
0.092998
0.090990
0.080000
0.060976
0.047978
0.044017
0.036987
0.024993
0.021980
0.031018
0.034979
0.031018
0.027001
0.031018
0.031018
0.020976
0.012999
0.014003
0.016011
0.012999
0.010990
0.018968
0.032971
0.035983
0.027001
0.022985
0.023989
0.005021
-0.033026
-0.051994
-0.028005
0.009986
0.021980
0.016011
0.021980
0.043012
0.052998
0.043012
0.032971
0.036987
0.045969
0.045021
0.037992
0.035983
0.033975
0.028005
0.021980
0.021980
0.022985
0.023989
0.028005
0.030014
0.027001
0.021980
0.018968
0.017015
0.014003
0.009986
0.008982
0.011994
0.010990
0.005021
0.007978
0.018968
0.017015
0.009986
0.024993
-0.047978
-0.368032
-0.754977
-0.750012
-0.276987
0.184992
0.287977
0.175006
0.081004
0.029010
-0.015007
-0.034031
-0.027001
-0.014003
0.002008
0.017015
0.031018
0.045021
0.054003
0.057015
0.067001
0.090990
0.105997
0.096011
0.077991
0.075983
0.087977
0.102984
0.112970
0.115983
0.116987
0.124016
0.139972
0.142984
0.122008
0.101980
0.103989
0.113975
0.107001
0.088982
0.081004
0.076987
0.063989
0.047978
0.046973
0.057015
0.056011
0.037992
0.023989
0.035983
0.059972
0.058019
0.030014
0.015007
0.031018
0.045021
0.032971
0.019972
0.032022
0.052998
0.050990
0.018968
-0.023989
-0.046025
-0.025997
0.028005
0.073975
0.081004
0.060976
0.049986
0.060976
0.080000
0.085969
0.074979
0.062984
0.062984
0.072970
0.078996
0.073975
0.063989
0.057015
0.048982
0.033975
0.020976
0.033975
0.067001
0.084016
0.067001
0.038996
0.030014
0.043012
0.055007
0.038996
0.008982
0.006973
0.045021
0.081004
0.073975
0.043012
0.054003
0.076987
-0.070014
-0.444015
-0.739021
-0.602007
-0.125021
0.262984
0.330989
0.207977
0.084016
0.017015
-0.012999
-0.017015
-0.002008
0.019972
0.032971
0.033975
0.038996
0.058019
0.082008
0.097015
0.103989
0.111018
0.118995
0.125021
0.125969
0.126973
0.131994
0.139972
0.145997
0.143988
0.138019
0.136011
0.136011
0.135007
0.132998
0.128981
0.118995
0.104993
0.098968
0.101980
0.098968
0.085021
0.074979
0.072970
0.070014
0.058019
0.044017
0.037992
0.043012
0.046973
0.040000
0.032971
0.037992
0.048982
0.049986
0.041004
0.036987
0.041004
0.042008
0.027001
-0.006025
-0.035983
-0.032022
0.002008
0.027001
0.030014
0.042008
0.065997
0.072022
0.057015
0.052998
0.064993
0.067001
0.051994
0.041004
0.042008
0.044017
0.037992
0.031018
0.031018
0.033975
0.031018
0.028005
0.033975
0.042008
0.037992
0.019972
0.004017
0.003013
0.010990
0.017015
0.015007
0.007978
0.007978
0.021980
0.027001
0.018968
0.038996
0.037992
-0.158995
-0.549008
-0.769984
-0.534001
-0.050990
0.259023
0.270013
0.147001
0.045021
-0.005021
-0.021980
-0.023989
-0.019024
-0.008982
0.007978
0.030014
0.048982
0.058019
0.058968
0.067001
0.085021
0.098968
0.102984
0.104993
0.113975
0.122008
0.122008
0.122008
0.126973
0.127977
0.122008
0.121004
0.128981
0.134002
0.122008
0.105997
0.100976
0.101980
0.096011
0.085969
0.078996
0.073975
0.064993
0.056011
0.051994
0.049986
0.046973
0.038996
0.030014
0.024993
0.024993
0.027001
0.029010
0.032971
0.033975
0.035983
0.040000
0.033975
0.005969
-0.028005
-0.034031
-0.007978
0.017015
0.027001
0.036987
0.055007
0.067001
0.067001
0.061980
0.058968
0.054003
0.051994
0.057015
0.061980
0.059972
0.054003
0.047978
0.038996
0.029010
0.029010
0.038996
0.044017
0.034979
0.029010
0.036987
0.045021
0.040000
0.035983
0.046973
0.056011
0.038996
0.011994
0.012999
0.033975
0.033975
0.029010
0.056011
0.010990
-0.275982
-0.681002
-0.770988
-0.354030
0.183988
0.376010
0.237991
0.074979
0.012999
-0.008982
-0.021980
-0.009986
0.007978
0.018019
0.031018
0.059972
0.090990
0.101980
0.096011
0.098019
0.108005
0.111018
0.112022
0.120000
0.122008
0.124016
0.150013
0.185997
0.191018
0.164016
0.142984
0.145997
0.150013
0.134002
0.112022
0.105997
0.113975
0.120000
0.116987
0.123012
0.132998
0.114979
0.065997
0.032022
0.040000
0.058968
0.067001
0.075983
0.084016
0.071018
0.051994
0.056011
0.068005
0.056011
0.038996
0.058019
0.094003
0.083012
0.021980
-0.017015
0.005021
0.040000
0.042008
0.037992
0.059972
0.086973
0.096011
0.097015
0.098968
0.097015
0.099972
0.109009
0.102984
0.074979
0.051994
0.058968
0.078996
0.087977
0.085969
0.083012
0.074979
0.061980
0.057015
0.068005
0.082008
0.080000
0.060976
0.044017
0.043012
0.052998
0.061980
0.069010
0.071018
0.056011
0.045969
0.058968
0.005969
-0.244016
-0.595981
-0.706999
-0.394029
0.086973
0.349009
0.312021
0.168981
0.064993
0.005021
-0.027001
-0.027001
-0.006025
0.017015
0.037992
0.059972
0.078996
0.094003
0.097015
0.091994
0.095007
0.115983
0.138019
0.147001
0.147001
0.151018
0.156987
0.153974
0.150013
0.153974
0.160000
0.158995
0.151018
0.142984
0.138019
0.136011
0.134002
0.129986
0.123012
0.112022
0.102984
0.098019
0.091994
0.078996
0.065997
0.059972
0.058019
0.058019
0.063989
0.070014
0.063989
0.047978
0.041004
0.045021
0.045969
0.041004
0.043012
0.050990
0.042008
0.010990
-0.012999
-0.008982
0.011994
0.027001
0.042008
0.061980
0.074979
0.067001
0.051994
0.051994
0.063989
0.070014
0.067001
0.060976
0.057015
0.055007
0.057015
0.060976
0.062984
0.056011
0.046973
0.042008
0.042008
0.042008
0.040000
0.040000
0.040000
0.037992
0.036987
0.036987
0.035983
0.032022
0.028005
0.029010
0.033975
0.035983
0.023989
0.022985
0.036987
-0.059024
-0.388004
-0.729984
-0.665995
-0.185997
0.239999
0.313974
0.192970
0.090990
0.033975
-0.002008
-0.011994
-0.010990
-0.010990
0.000000
0.024993
0.051994
0.072022
0.077991
0.077991
0.085969
0.104993
0.122008
0.125021
0.123012
0.127977
0.140976
0.144993
0.138019
0.130990
0.134002
0.141980
0.144993
0.139972
0.131994
0.126973
0.127977
0.130990
0.121004
0.098968
0.078996
0.073975
0.073975
0.070014
0.063989
0.060976
0.061980
0.067001
0.067001
0.058968
0.050990
0.048982
0.045969
0.040000
0.037992
0.041004
0.037992
0.032022
0.032971
0.041004
0.044017
0.037992
0.035983
0.044017
0.052998
0.061980
0.070014
0.063989
0.032022
-0.007029
-0.021032
-0.007029
0.017015
0.038996
0.057015
0.062984
0.058019
0.051994
0.049986
0.052998
0.057015
0.061980
0.063989
0.059972
0.048982
0.038996
0.041004
0.048982
0.050990
0.045969
0.042008
0.045969
0.048982
0.040000
0.028005
0.035983
0.061980
0.077991
0.067001
0.044017
0.029010
0.031018
0.036987
0.022985
0.000000
0.022985
0.058019
-0.086025
-0.477990
-0.804014
-0.688980
-0.223988
0.152022
0.238995
0.179972
0.112970
0.045969
0.003013
0.012999
0.041004
0.046973
0.046973
0.057015
0.067001
0.076987
0.101980
0.127977
0.131994
0.118995
0.109009
0.104993
0.101980
0.110014
0.134002
0.161004
0.179023
0.183988
0.180976
0.168981
0.153974
0.141980
0.136011
0.128981
0.117991
0.108005
0.107001
0.114979
0.121004
0.117991
0.110014
0.096011
0.071018
0.042008
0.030014
0.044017
0.060976
0.061980
0.058968
0.072970
0.089986
0.081004
0.050990
0.038996
0.056011
0.070014
0.058968
0.043012
0.052998
0.084016
0.097015
0.077991
0.058019
0.064993
0.075983
0.058019
0.024993
0.006973
0.002008
0.005969
0.033975
0.080000
0.105997
0.097015
0.080000
0.067001
0.049986
0.042008
0.058019
0.083012
0.089986
0.083012
0.075983
0.071018
0.067001
0.070014
0.070014
0.058019
0.036987
0.030014
0.043012
0.061980
0.064993
0.048982
0.031018
0.028005
0.038996
0.047978
0.045021
0.043012
0.045021
0.045021
0.054003
0.068005
-0.022985
-0.319999
-0.665995
-0.716985
-0.361003
0.098019
0.312970
0.260975
0.131994
0.044017
-0.003013
-0.019024
-0.012999
-0.002008
0.006973
0.022985
0.047978
0.071018
0.085021
0.090990
0.091994
0.098019
0.113975
0.129986
0.131994
0.125969
0.128981
0.140976
0.148005
0.147001
0.148005
0.151018
0.151018
0.144993
0.137015
0.129986
0.125021
0.121004
0.108005
0.096011
0.095007
0.099972
0.090990
0.069010
0.051994
0.047978
0.052998
0.057015
0.054003
0.045969
0.044017
0.047978
0.045969
0.038996
0.036987
0.036987
0.032971
0.029010
0.031018
0.033975
0.036987
0.042008
0.049986
0.048982
0.041004
0.034979
0.040000
0.047978
0.052998
0.049986
0.041004
0.033975
0.035983
0.038996
0.035983
0.032022
0.032971
0.031018
0.009986
-0.022985
-0.042008
-0.022985
0.020976
0.043012
0.029010
0.017015
0.032022
0.052998
0.057015
0.054003
0.055007
0.051994
0.047978
0.047978
0.050990
0.051994
0.052998
0.056011
0.055007
0.044017
0.029010
0.023989
0.030014
0.034979
0.032971
0.031018
0.033975
0.036987
0.036987
0.035983
0.033975
0.032971
0.033975
0.031018
0.020976
0.016011
0.018968
0.020976
0.032971
0.036987
-0.086025
-0.414002
-0.750012
-0.761002
-0.398995
0.025997
0.232022
0.220976
0.138019
0.063989
0.016011
-0.004017
0.000000
0.008982
0.018968
0.034979
0.055007
0.070014
0.080000
0.088982
0.098019
0.102984
0.105997
0.105997
0.107001
0.111018
0.123012
0.138019
0.142984
0.134002
0.122008
0.116987
0.122008
0.127977
0.122008
0.102984
0.088982
0.089986
0.085969
0.063989
0.046973
0.056011
0.073975
0.073975
0.061980
0.049986
0.037992
0.028005
0.037992
0.062984
0.067001
0.042008
0.015007
0.010990
0.019972
0.024993
0.027001
0.025997
0.019972
0.017015
0.027001
0.042008
0.050990
0.048982
0.041004
0.030014
0.022985
0.023989
0.032971
0.043012
0.046973
0.051994
0.068005
0.077991
0.062984
0.038996
0.018968
-0.008982
-0.038996
-0.025997
0.030014
0.056011
0.019972
-0.001004
0.040000
0.083012
0.075983
0.055007
0.057015
0.067001
0.065997
0.056011
0.033975
0.012999
0.011994
0.025997
0.030014
0.031018
0.050990
0.075983
0.075983
0.054003
0.045969
0.056011
0.054003
0.030014
0.005969
0.009986
0.041004
0.063989
0.048982
0.012999
0.001004
0.015007
0.030014
0.049986
0.051994
-0.091994
-0.442007
-0.766023
-0.723010
-0.308005
0.115983
0.272021
0.219023
0.127977
0.057015
0.002008
-0.012999
0.005969
0.022985
0.032971
0.058019
0.091994
0.109009
0.105997
0.100976
0.100976
0.103989
0.112022
0.126973
0.141980
0.148005
0.144993
0.139972
0.143988
0.156987
0.166973
0.160000
0.136011
0.113975
0.112970
0.125969
0.128981
0.114979
0.102984
0.102984
0.103989
0.095007
0.077991
0.062984
0.058019
0.059972
0.062984
0.056011
0.038996
0.021980
0.020976
0.030014
0.030014
0.020976
0.018968
0.029010
0.035983
0.032971
0.032971
0.042008
0.046973
0.040000
0.030014
0.031018
0.038996
0.041004
0.036987
0.032022
0.030014
0.030014
0.036987
0.048982
0.056011
0.045021
0.014003
-0.029010
-0.056011
-0.040000
0.001004
0.020976
0.009986
0.008982
0.035983
0.056011
0.048982
0.038996
0.041004
0.040000
0.034979
0.036987
0.045021
0.045021
0.035983
0.024993
0.016011
0.018968
0.035983
0.045969
0.033975
0.015007
0.014003
0.023989
0.024993
0.015007
0.005969
0.004017
0.008982
0.018019
0.018019
0.000000
-0.011994
0.002008
0.015007
0.008982
0.022985
0.033975
-0.126025
-0.512021
-0.821978
-0.722006
-0.304992
0.061980
0.205020
0.192022
0.111018
0.023989
-0.015007
-0.009986
-0.003013
-0.005021
0.003013
0.016011
0.024993
0.032971
0.048982
0.070014
0.085969
0.097015
0.102984
0.101980
0.098968
0.103989
0.112970
0.115983
0.108005
0.101980
0.102984
0.105997
0.104993
0.102984
0.103989
0.098968
0.091994
0.085969
0.078996
0.062984
0.047978
0.043012
0.045021
0.042008
0.028005
0.014003
0.012999
0.021980
0.018968
0.004017
-0.005021
0.005021
0.017015
0.017015
0.008982
0.002008
0.000000
0.003013
0.010990
0.020976
0.027001
0.020976
0.010990
0.005021
0.005021
0.005969
0.005021
0.005021
0.006973
0.010990
0.012999
0.015007
0.016011
0.021980
0.025997
0.018019
0.005021
0.005969
0.018019
0.017015
0.004017
0.002008
0.012999
0.017015
0.011994
0.008982
0.006973
-0.007029
-0.034031
-0.050990
-0.034979
-0.003013
0.009986
0.002008
0.005021
0.025997
0.035983
0.023989
0.018019
0.031018
0.038996
0.027001
0.010990
0.005969
0.005969
0.006973
0.011994
0.019972
0.019972
0.012999
0.005969
0.007978
0.008982
0.002008
-0.008982
-0.007978
0.006973
0.017015
0.008982
-0.005021
-0.005021
0.000000
-0.008982
-0.020028
-0.017015
-0.016011
-0.019024
-0.002008
-0.034031
-0.264992
-0.650988
-0.846023
-0.599998
-0.136011
0.154979
0.190013
0.127977
0.063989
0.007978
-0.016011
-0.008982
-0.007978
-0.015007
-0.003013
0.019972
0.033975
0.037992
0.045021
0.060976
0.085969
0.107001
0.107001
0.091994
0.088982
0.100976
0.107001
0.102984
0.101980
0.102984
0.107001
0.117991
0.136011
0.131994
0.095007
0.052998
0.049986
0.076987
0.085969
0.059972
0.036987
0.041004
0.048982
0.035983
0.014003
0.006973
0.019972
0.031018
0.019972
-0.002008
-0.003013
0.018019
0.034979
0.035983
0.031018
0.030014
0.030014
0.021980
0.003013
-0.006025
0.005021
0.018019
0.017015
0.014003
0.021980
0.029010
0.022985
0.014003
0.018968
0.030014
0.030014
0.019972
0.018019
0.023989
0.010990
-0.025997
-0.055007
-0.049986
-0.021032
0.004017
0.008982
0.005021
0.023989
0.059972
0.072970
0.051994
0.036987
0.045969
0.051994
0.036987
0.019972
0.015007
0.010990
0.003013
0.005021
0.020976
0.032022
0.025997
0.014003
0.015007
0.023989
0.024993
0.011994
0.002008
0.007978
0.021980
0.024993
0.011994
-0.005021
-0.006025
0.007978
0.015007
0.020976
0.027001
-0.069010
-0.382983
-0.755981
-0.801002
-0.403011
0.072970
0.259023
0.191018
0.083012
0.010990
-0.034031
-0.042008
-0.024993
-0.018019
-0.012999
0.007978
0.024993
0.023989
0.025997
0.045969
0.067001
0.072970
0.068005
0.073975
0.095007
0.116987
0.121004
0.112970
0.110014
0.114979
0.110014
0.098968
0.100976
0.109009
0.099972
0.076987
0.065997
0.072970
0.076987
0.065997
0.050990
0.042008
0.037992
0.032971
0.022985
0.008982
0.002008
0.006973
0.015007
0.014003
0.005969
0.001004
-0.002008
-0.006025
-0.007978
-0.007029
-0.005021
-0.001004
0.001004
-0.002008
-0.005021
0.000000
0.005021
0.000000
-0.008982
-0.007978
0.003013
0.005969
0.001004
-0.001004
0.006973
0.016011
0.018019
0.010990
-0.006025
-0.033026
-0.057015
-0.060028
-0.041004
-0.021980
-0.018019
-0.016011
-0.002008
0.009986
0.009986
0.009986
0.020976
0.030014
0.023989
0.007978
-0.005021
-0.006025
0.005021
0.014003
0.011994
0.004017
0.001004
0.002008
-0.003013
-0.012999
-0.018019
-0.018019
-0.014003
-0.006025
-0.001004
-0.002008
-0.006025
-0.010990
-0.021032
-0.034031
-0.034031
-0.015007
-0.005021
-0.016011
-0.002008
0.017015
-0.127029
-0.501979
-0.829007
-0.765019
-0.358995
0.035983
0.202008
0.180976
0.092998
0.010990
-0.032022
-0.038996
-0.034979
-0.033026
-0.024993
-0.007029
0.016011
0.034979
0.045969
0.051994
0.058019
0.063989
0.073975
0.090990
0.100976
0.092998
0.081004
0.085969
0.100976
0.107001
0.102984
0.101980
0.104993
0.103989
0.090990
0.073975
0.063989
0.061980
0.059972
0.048982
0.034979
0.031018
0.034979
0.037992
0.036987
0.032971
0.020976
0.001004
-0.012999
-0.014003
-0.008982
-0.008982
-0.010990
-0.010990
-0.010990
-0.007029
0.001004
0.006973
0.007978
0.007978
0.005969
-0.001004
-0.003013
0.009986
0.025997
0.018019
-0.003013
-0.005021
0.007978
0.006973
0.002008
0.011994
0.023989
0.020976
0.012999
0.009986
0.006973
0.008982
0.019972
0.011994
-0.034031
-0.070014
-0.047978
0.002008
0.015007
0.002008
0.007978
0.032971
0.045021
0.040000
0.037992
0.043012
0.036987
0.018968
0.010990
0.022985
0.033975
0.030014
0.021980
0.020976
0.022985
0.022985
0.017015
0.005969
0.003013
0.017015
0.035983
0.036987
0.022985
0.018019
0.019972
0.006973
-0.019024
-0.031018
-0.012999
0.012999
0.027001
0.043012
0.027001
-0.164016
-0.565019
-0.860025
-0.700026
-0.215006
0.142984
0.210990
0.157991
0.105997
0.045021
-0.005021
-0.010990
0.002008
0.007978
0.012999
0.022985
0.032022
0.036987
0.045021
0.063989
0.087977
0.098968
0.092998
0.089986
0.105997
0.134002
0.148005
0.128981
0.097015
0.096011
0.132998
0.157991
0.138967
0.099972
0.081004
0.083012
0.084016
0.077991
0.080000
0.091994
0.091994
0.070014
0.045969
0.034979
0.031018
0.024993
0.019972
0.018968
0.020976
0.027001
0.032022
0.032022
0.020976
0.000000
-0.016011
-0.008982
0.012999
0.022985
0.012999
0.002008
0.005969
0.017015
0.021980
0.021980
0.018019
0.012999
0.014003
0.020976
0.018968
-0.004017
-0.034979
-0.055007
-0.047978
-0.017015
0.007978
0.010990
0.008982
0.019972
0.034979
0.038996
0.036987
0.032971
0.028005
0.022985
0.019972
0.019972
0.019972
0.019972
0.017015
0.009986
0.006973
0.007978
0.007978
0.004017
0.000000
0.000000
0.001004
0.002008
0.005969
0.005021
-0.002008
-0.009986
-0.007029
0.004017
0.005021
-0.004017
-0.015007
-0.025997
-0.016011
0.015007
-0.073026
-0.412997
-0.786999
-0.777013
-0.363011
0.042008
0.183988
0.163012
0.104993
0.031018
-0.025997
-0.037992
-0.029010
-0.019024
-0.007029
0.006973
0.020976
0.035983
0.045021
0.047978
0.052998
0.068005
0.082008
0.085969
0.085021
0.088982
0.101980
0.110014
0.108005
0.104993
0.104993
0.102984
0.098968
0.098019
0.095007
0.085021
0.075983
0.071018
0.064993
0.055007
0.045021
0.041004
0.037992
0.034979
0.028005
0.015007
0.001004
-0.002008
0.008982
0.014003
0.005021
-0.009986
-0.015007
-0.009986
0.001004
0.008982
0.009986
0.006973
0.007978
0.012999
0.010990
0.005021
0.005969
0.017015
0.022985
0.015007
0.005969
0.006973
0.011994
0.009986
0.006973
0.008982
0.011994
0.007978
0.002008
0.002008
0.006973
0.009986
0.006973
-0.003013
-0.027001
-0.060028
-0.073026
-0.047029
-0.007978
0.006973
0.000000
0.000000
0.005969
0.007978
0.016011
0.034979
0.044017
0.028005
0.006973
0.008982
0.032022
0.046973
0.033975
0.006973
0.000000
0.014003
0.021980
0.006973
-0.008982
-0.007978
0.007978
0.009986
-0.010990
-0.025997
-0.009986
0.016011
0.027001
0.021980
0.016011
0.010990
0.005969
0.000000
0.007978
0.025997
-0.042008
-0.317991
-0.700026
-0.838993
-0.543987
-0.067001
0.207977
0.212998
0.127977
0.064993
0.012999
-0.029010
-0.034979
-0.009986
0.018968
0.032971
0.032022
0.038996
0.060976
0.071018
0.057015
0.050990
0.076987
0.108005
0.112022
0.102984
0.112970
0.138019
0.150013
0.136011
0.110014
0.096011
0.110014
0.130990
0.128981
0.103989
0.087977
0.088982
0.081004
0.061980
0.051994
0.052998
0.045969
0.033975
0.035983
0.045021
0.048982
0.046973
0.044017
0.037992
0.027001
0.009986
-0.004017
-0.007978
-0.005021
0.005021
0.022985
0.033975
0.023989
0.008982
0.014003
0.030014
0.035983
0.028005
0.008982
-0.010990
-0.012999
0.006973
0.032022
0.043012
0.037992
0.030014
0.019972
-0.002008
-0.034031
-0.049986
-0.028005
0.012999
0.030014
0.017015
0.005021
0.012999
0.024993
0.024993
0.015007
0.011994
0.021980
0.032971
0.024993
0.006973
0.008982
0.032022
0.038996
0.018968
0.002008
0.009986
0.023989
0.018968
0.003013
-0.007978
-0.010990
-0.008982
-0.004017
-0.001004
0.000000
-0.001004
-0.007029
-0.015007
-0.015007
-0.009986
-0.009986
0.006973
0.018019
-0.132998
-0.513025
-0.825995
-0.711016
-0.269009
0.090990
0.204016
0.179023
0.104993
0.008982
-0.048982
-0.047978
-0.034031
-0.028005
-0.015007
0.005969
0.020976
0.028005
0.035983
0.047978
0.064993
0.080000
0.082008
0.071018
0.061980
0.073975
0.102984
0.120000
0.109009
0.091994
0.092998
0.108005
0.110014
0.096011
0.083012
0.078996
0.074979
0.065997
0.054003
0.045021
0.041004
0.036987
0.029010
0.019972
0.016011
0.012999
0.006973
0.003013
0.006973
0.008982
-0.002008
-0.016011
-0.017015
-0.008982
-0.007978
-0.010990
-0.007978
0.001004
0.003013
-0.002008
-0.008982
-0.012999
-0.010990
-0.004017
0.000000
-0.002008
-0.002008
0.005969
0.011994
0.006973
-0.001004
0.000000
0.006973
0.008982
0.003013
-0.002008
-0.003013
-0.011994
-0.040000
-0.070014
-0.073026
-0.043012
-0.008982
0.000000
-0.007978
-0.003013
0.015007
0.022985
0.018968
0.016011
0.018968
0.016011
0.007978
0.003013
0.005021
0.010990
0.017015
0.015007
0.003013
-0.008982
-0.010990
-0.002008
0.005969
0.003013
-0.005021
-0.009986
-0.015007
-0.022985
-0.021980
-0.007978
0.001004
-0.008982
-0.020028
-0.015007
0.002008
0.001004
-0.015007
-0.004017
0.019972
-0.100028
-0.472021
-0.849983
-0.824991
-0.385996
0.045021
0.192970
0.164016
0.109009
0.036987
-0.033026
-0.048982
-0.019024
0.005021
0.010990
0.017015
0.032022
0.051994
0.071018
0.083012
0.078996
0.063989
0.059972
0.083012
0.114979
0.125021
0.112970
0.102984
0.110014
0.125021
0.132998
0.126973
0.114979
0.103989
0.094003
0.087977
0.086973
0.084016
0.071018
0.056011
0.055007
0.063989
0.069010
0.057015
0.034979
0.019972
0.022985
0.033975
0.034979
0.021980
0.011994
0.012999
0.015007
0.016011
0.012999
0.004017
-0.001004
0.015007
0.040000
0.043012
0.020976
0.001004
0.002008
0.018019
0.032022
0.036987
0.032971
0.024993
0.018968
0.021980
0.041004
0.068005
0.073975
0.042008
-0.010990
-0.055007
-0.068005
-0.044017
0.000000
0.020976
0.016011
0.023989
0.060976
0.084016
0.070014
0.045021
0.034979
0.042008
0.047978
0.033975
0.001004
-0.014003
0.014003
0.045969
0.041004
0.016011
0.011994
0.023989
0.021980
0.016011
0.023989
0.034979
0.027001
0.009986
0.002008
0.002008
0.004017
0.010990
0.019972
0.020976
0.011994
-0.001004
0.012999
0.033975
-0.081004
-0.421031
-0.772996
-0.784991
-0.414002
0.018968
0.232022
0.219971
0.123012
0.037992
-0.011994
-0.034031
-0.034979
-0.019024
0.005021
0.022985
0.031018
0.037992
0.047978
0.057015
0.064993
0.077991
0.096011
0.109009
0.111018
0.109009
0.113975
0.122008
0.121004
0.112970
0.110014
0.112022
0.112022
0.108005
0.102984
0.095007
0.089986
0.091994
0.087977
0.067001
0.044017
0.033975
0.036987
0.042008
0.042008
0.035983
0.025997
0.018968
0.016011
0.012999
0.006973
0.002008
0.005969
0.008982
0.005021
0.001004
0.004017
0.003013
-0.005021
-0.006025
0.008982
0.020976
0.012999
0.000000
0.001004
0.008982
0.010990
0.010990
0.012999
0.010990
0.008982
0.018019
0.028005
0.025997
0.011994
-0.011994
-0.042008
-0.059024
-0.040000
-0.002008
0.015007
0.007978
0.006973
0.023989
0.033975
0.025997
0.019972
0.029010
0.036987
0.029010
0.012999
0.004017
0.008982
0.019972
0.025997
0.018968
0.006973
0.005021
0.012999
0.018019
0.012999
0.005021
-0.002008
-0.005021
-0.006025
-0.001004
0.005969
0.005969
-0.001004
-0.005021
-0.008982
-0.010990
-0.009986
-0.008982
-0.003013
0.018968
-0.001004
-0.207977
-0.591016
-0.847027
-0.694001
-0.246024
0.129986
0.236987
0.164016
0.071018
0.015007
-0.012999
-0.017015
-0.003013
0.009986
0.017015
0.027001
0.038996
0.046973
0.050990
0.058968
0.072022
0.084016
0.090990
0.092998
0.096011
0.097015
0.099972
0.105997
0.113975
0.112970
0.101980
0.092998
0.095007
0.102984
0.108005
0.103989
0.090990
0.080000
0.076987
0.069010
0.050990
0.034979
0.028005
0.031018
0.041004
0.047978
0.041004
0.029010
0.021980
0.012999
0.004017
0.007978
0.018968
0.012999
-0.006025
-0.002008
0.025997
0.041004
0.025997
0.007978
0.008982
0.018968
0.022985
0.020976
0.023989
0.029010
0.023989
0.015007
0.010990
0.014003
0.017015
0.025997
0.032022
0.006973
-0.041004
-0.056011
-0.018019
0.027001
0.034979
0.024993
0.030014
0.042008
0.037992
0.025997
0.027001
0.040000
0.047978
0.045021
0.042008
0.037992
0.028005
0.018019
0.018968
0.027001
0.028005
0.023989
0.029010
0.032971
0.022985
0.009986
0.012999
0.019972
0.014003
0.003013
0.007978
0.023989
0.027001
0.008982
-0.003013
0.004017
0.008982
0.002008
0.017015
0.010990
-0.182984
-0.580026
-0.826999
-0.619022
-0.154030
0.152022
0.205969
0.166973
0.102984
0.021980
-0.023989
-0.018019
-0.008982
-0.002008
0.022985
0.047978
0.044017
0.031018
0.045021
0.080000
0.103989
0.101980
0.085021
0.075983
0.088982
0.117991
0.138967
0.138967
0.127977
0.124016
0.129986
0.131994
0.117991
0.098968
0.091994
0.098019
0.098019
0.082008
0.059972
0.047978
0.045021
0.043012
0.037992
0.038996
0.044017
0.041004
0.027001
0.014003
0.008982
0.009986
0.008982
0.009986
0.011994
0.009986
0.002008
-0.004017
0.000000
0.008982
0.010990
0.003013
0.003013
0.018968
0.028005
0.012999
-0.007978
-0.007978
0.008982
0.019972
0.017015
0.011994
0.009986
0.005021
-0.010990
-0.037992
-0.060028
-0.050990
-0.019024
0.005021
0.006973
0.008982
0.019972
0.024993
0.018019
0.015007
0.019972
0.016011
0.002008
-0.006025
0.001004
0.010990
0.012999
0.006973
-0.001004
-0.003013
0.001004
0.003013
-0.001004
-0.006025
-0.008982
-0.014003
-0.019024
-0.016011
-0.005021
-0.001004
-0.009986
-0.027001
-0.034979
-0.029010
-0.010990
0.003013
-0.005021
-0.015007
0.008982
-0.018019
-0.262984
-0.669008
-0.873024
-0.637990
-0.174002
0.148005
0.205969
0.127977
0.047978
0.001004
-0.021980
-0.027001
-0.021032
-0.011994
-0.003013
0.008982
0.023989
0.031018
0.031018
0.037992
0.058019
0.075983
0.084016
0.090990
0.101980
0.107001
0.107001
0.110014
0.113975
0.105997
0.086973
0.074979
0.081004
0.090990
0.088982
0.074979
0.063989
0.063989
0.064993
0.058968
0.045021
0.033975
0.028005
0.025997
0.019972
0.012999
0.007978
0.005969
0.005021
0.005969
0.005969
-0.005021
-0.022985
-0.024993
-0.003013
0.012999
0.001004
-0.017015
-0.009986
0.010990
0.016011
0.010990
0.018968
0.033975
0.029010
0.011994
0.007978
0.016011
0.015007
0.007978
0.018968
0.037992
0.034979
0.012999
-0.006025
-0.020028
-0.044017
-0.061032
-0.047029
-0.015007
0.008982
0.019972
0.029010
0.035983
0.037992
0.036987
0.036987
0.032971
0.024993
0.016011
0.008982
0.004017
0.007978
0.021980
0.034979
0.038996
0.037992
0.032971
0.018019
-0.002008
-0.008982
0.000000
0.005021
0.004017
0.012999
0.025997
0.024993
0.016011
0.018968
0.027001
0.019972
0.000000
-0.018019
-0.019024
0.017015
0.016011
-0.194978
-0.605019
-0.855004
-0.649984
-0.175006
0.164016
0.229009
0.156987
0.077991
0.022985
-0.008982
-0.021032
-0.018019
-0.010990
-0.005021
0.005021
0.027001
0.051994
0.063989
0.067001
0.078996
0.091994
0.089986
0.083012
0.092998
0.116987
0.130990
0.125021
0.108005
0.094003
0.095007
0.108005
0.121004
0.123012
0.111018
0.095007
0.083012
0.075983
0.071018
0.064993
0.060976
0.057015
0.051994
0.043012
0.032022
0.015007
0.001004
0.005021
0.021980
0.028005
0.016011
0.006973
0.011994
0.011994
0.001004
-0.005021
0.001004
0.006973
0.004017
-0.003013
-0.006025
-0.002008
0.002008
0.004017
0.003013
0.000000
0.002008
0.010990
0.020976
0.017015
-0.012999
-0.050990
-0.064993
-0.043012
-0.012999
-0.004017
-0.006025
0.006973
0.030014
0.035983
0.019972
0.003013
0.002008
0.008982
0.012999
0.008982
0.003013
0.002008
0.009986
0.015007
0.012999
0.005969
0.002008
-0.003013
-0.008982
-0.016011
-0.018019
-0.011994
0.000000
0.005969
-0.002008
-0.014003
-0.016011
-0.011994
-0.017015
-0.022985
-0.012999
0.000000
-0.016011
-0.031018
-0.004017
-0.036987
-0.300027
-0.701030
-0.863986
-0.593025
-0.127977
0.176011
0.221980
0.128981
0.030014
-0.024993
-0.037992
-0.034979
-0.029010
-0.022985
-0.012999
0.001004
0.010990
0.015007
0.023989
0.046973
0.074979
0.085021
0.075983
0.072970
0.087977
0.103989
0.104993
0.099972
0.102984
0.110014
0.112970
0.110014
0.101980
0.085969
0.070014
0.061980
0.060976
0.054003
0.045969
0.044017
0.042008
0.030014
0.011994
0.004017
0.008982
0.017015
0.017015
0.005969
-0.011994
-0.029010
-0.032022
-0.018019
-0.004017
-0.007978
-0.014003
-0.001004
0.018968
0.015007
-0.002008
-0.003013
0.012999
0.016011
0.005021
-0.004017
0.003013
0.018968
0.027001
0.019972
0.009986
0.016011
0.034979
0.042008
0.031018
0.019972
0.014003
0.004017
-0.006025
-0.009986
-0.018019
-0.036987
-0.047978
-0.032022
0.001004
0.027001
0.035983
0.030014
0.016011
0.010990
0.021980
0.033975
0.031018
0.017015
0.014003
0.032022
0.056011
0.057015
0.024993
-0.009986
-0.011994
0.007978
0.009986
-0.002008
0.004017
0.018968
0.014003
-0.005021
-0.007978
0.000000
0.005969
0.008982
0.006973
0.000000
0.002008
0.020976
0.025997
-0.003013
-0.022985
-0.005021
-0.070014
-0.380027
-0.777013
-0.828003
-0.407028
0.081004
0.260975
0.196987
0.107001
0.045021
-0.002008
-0.027001
-0.035983
-0.033026
0.001004
0.045969
0.055007
0.035983
0.037992
0.069010
0.091994
0.088982
0.083012
0.087977
0.094003
0.097015
0.107001
0.117991
0.118995
0.112022
0.113975
0.125021
0.132998
0.124016
0.100976
0.080000
0.078996
0.086973
0.078996
0.058019
0.042008
0.038996
0.043012
0.043012
0.037992
0.028005
0.019972
0.010990
0.001004
-0.007029
-0.005021
0.003013
0.009986
0.009986
0.003013
-0.003013
-0.002008
0.005969
0.008982
0.003013
-0.002008
0.005021
0.014003
0.014003
0.006973
0.007978
0.016011
0.018019
0.008982
0.004017
0.011994
0.016011
0.001004
-0.031018
-0.057015
-0.059024
-0.034979
-0.011994
-0.007978
-0.007978
0.009986
0.030014
0.030014
0.017015
0.008982
0.010990
0.017015
0.019972
0.011994
-0.001004
-0.003013
0.006973
0.016011
0.012999
0.004017
-0.005021
-0.007978
-0.002008
0.002008
-0.007029
-0.021980
-0.023989
-0.008982
0.007978
0.008982
-0.002008
-0.014003
-0.022985
-0.025997
-0.014003
0.000000
-0.005021
-0.009986
0.002008
-0.072022
-0.362007
-0.734001
-0.835032
-0.523011
-0.061980
0.205020
0.207977
0.098968
0.018968
-0.008982
-0.021032
-0.034031
-0.037992
-0.023989
-0.002008
0.014003
0.024993
0.033975
0.042008
0.051994
0.065997
0.076987
0.077991
0.078996
0.087977
0.099972
0.104993
0.104993
0.107001
0.110014
0.107001
0.099972
0.096011
0.094003
0.085021
0.070014
0.057015
0.055007
0.059972
0.062984
0.055007
0.041004
0.028005
0.020976
0.016011
0.009986
0.003013
-0.007978
-0.012999
-0.005021
0.010990
0.011994
-0.002008
-0.011994
-0.005021
0.004017
0.004017
-0.001004
-0.004017
-0.004017
0.002008
0.010990
0.012999
0.002008
-0.007029
-0.002008
0.012999
0.020976
0.016011
0.005021
-0.004017
-0.007029
-0.010990
-0.014003
-0.008982
0.008982
0.022985
0.014003
-0.016011
-0.046025
-0.052998
-0.038996
-0.021980
-0.008982
0.009986
0.032971
0.037992
0.019972
0.009986
0.020976
0.029010
0.019972
0.014003
0.016011
0.007978
-0.002008
0.007978
0.028005
0.032971
0.020976
0.008982
0.000000
0.001004
0.009986
0.011994
-0.001004
-0.008982
0.000000
0.015007
0.015007
0.006973
0.002008
-0.002008
0.000000
0.005021
-0.001004
-0.019024
-0.007978
0.021980
-0.077991
-0.416010
-0.789007
-0.814000
-0.417014
0.044017
0.233974
0.180976
0.077991
0.008982
-0.020028
-0.009986
0.012999
0.018019
0.012999
0.014003
0.020976
0.030014
0.040000
0.052998
0.071018
0.085021
0.089986
0.098019
0.115983
0.122008
0.111018
0.112022
0.128981
0.132998
0.114979
0.103989
0.116987
0.126973
0.102984
0.068005
0.061980
0.085969
0.100976
0.084016
0.055007
0.044017
0.048982
0.052998
0.048982
0.036987
0.022985
0.016011
0.019972
0.018968
0.008982
0.002008
0.010990
0.024993
0.027001
0.014003
-0.003013
-0.007029
0.006973
0.025997
0.032022
0.020976
0.001004
-0.007978
0.003013
0.019972
0.020976
0.007978
0.002008
0.006973
0.005021
-0.010990
-0.029010
-0.046025
-0.057015
-0.046025
-0.016011
0.007978
0.011994
0.010990
0.012999
0.016011
0.019972
0.029010
0.031018
0.019972
0.003013
-0.007978
-0.007978
0.001004
0.009986
0.014003
0.012999
0.005969
0.000000
-0.006025
-0.010990
-0.014003
-0.011994
-0.010990
-0.016011
-0.020028
-0.018019
-0.010990
-0.006025
-0.010990
-0.024993
-0.030014
-0.018019
-0.011994
-0.019024
-0.002008
-0.021032
-0.255006
-0.673024
-0.888031
-0.644015
-0.182984
0.120000
0.194978
0.156987
0.064993
-0.027001
-0.054003
-0.029010
-0.014003
-0.017015
-0.012999
0.001004
0.009986
0.020976
0.045021
0.062984
0.058019
0.045969
0.055007
0.076987
0.086973
0.083012
0.084016
0.095007
0.103989
0.108005
0.107001
0.098968
0.088982
0.081004
0.076987
0.069010
0.055007
0.041004
0.038996
0.045021
0.045969
0.037992
0.025997
0.016011
0.008982
0.007978
0.007978
0.003013
-0.007978
-0.012999
-0.007978
-0.004017
-0.007978
-0.011994
-0.010990
-0.010990
-0.010990
-0.006025
-0.002008
-0.007978
-0.016011
-0.015007
-0.008982
-0.007029
-0.011994
-0.017015
-0.014003
-0.001004
0.015007
0.017015
0.002008
-0.009986
-0.005021
0.000000
-0.014003
-0.043012
-0.067001
-0.072022
-0.052998
-0.024993
-0.010990
-0.011994
-0.002008
0.022985
0.035983
0.019972
-0.001004
-0.004017
0.005969
0.005969
-0.008982
-0.024993
-0.022985
-0.006025
0.008982
0.007978
-0.002008
-0.011994
-0.019024
-0.021980
-0.017015
-0.004017
0.005969
0.005021
-0.006025
-0.012999
-0.008982
0.000000
0.001004
-0.012999
-0.031018
-0.040000
-0.034031
-0.020028
0.012999
0.033975
-0.104993
-0.478994
-0.826999
-0.786999
-0.379023
0.032971
0.204016
0.177015
0.083012
0.010990
-0.010990
-0.016011
-0.035983
-0.046025
-0.012999
0.031018
0.034979
0.011994
0.009986
0.043012
0.078996
0.090990
0.085969
0.086973
0.101980
0.109009
0.097015
0.082008
0.081004
0.095007
0.111018
0.112970
0.098019
0.085021
0.084016
0.083012
0.077991
0.075983
0.073975
0.059972
0.037992
0.023989
0.017015
0.015007
0.020976
0.031018
0.030014
0.018019
0.009986
0.005969
0.002008
0.004017
0.008982
0.000000
-0.020028
-0.031018
-0.030014
-0.025997
-0.012999
0.003013
0.006973
-0.002008
-0.005021
0.003013
0.007978
0.003013
-0.004017
-0.004017
0.004017
0.018019
0.020976
-0.005021
-0.046025
-0.068005
-0.050990
-0.016011
0.003013
-0.001004
-0.009986
-0.006025
0.009986
0.027001
0.034979
0.027001
0.010990
0.006973
0.017015
0.021980
0.011994
0.000000
-0.003013
-0.003013
-0.008982
-0.016011
-0.016011
-0.012999
-0.019024
-0.027001
-0.025997
-0.021032
-0.021980
-0.022985
-0.019024
-0.022985
-0.035983
-0.044017
-0.037992
-0.027001
-0.024993
-0.034031
-0.023989
0.006973
-0.070014
-0.394029
-0.805018
-0.891992
-0.514029
-0.023989
0.206973
0.190013
0.108005
0.027001
-0.041004
-0.061032
-0.047029
-0.043012
-0.044017
-0.031018
-0.012999
-0.002008
0.010990
0.028005
0.040000
0.048982
0.061980
0.075983
0.081004
0.080000
0.076987
0.075983
0.075983
0.073975
0.071018
0.070014
0.073975
0.080000
0.080000
0.070014
0.056011
0.045021
0.037992
0.033975
0.031018
0.021980
0.005021
-0.007978
-0.007029
-0.006025
-0.017015
-0.029010
-0.027001
-0.020028
-0.024993
-0.031018
-0.027001
-0.021980
-0.030014
-0.038996
-0.038996
-0.037992
-0.038996
-0.033026
-0.016011
-0.003013
-0.006025
-0.016011
-0.019024
-0.018019
-0.023989
-0.035983
-0.038996
-0.028005
-0.012999
-0.005021
-0.015007
-0.054003
-0.097015
-0.099023
-0.057015
-0.023989
-0.025997
-0.031018
-0.018019
-0.007029
-0.017015
-0.027001
-0.020028
-0.009986
-0.008982
-0.012999
-0.015007
-0.017015
-0.017015
-0.011994
-0.007029
-0.008982
-0.012999
-0.015007
-0.017015
-0.024993
-0.036987
-0.043012
-0.041004
-0.041004
-0.044017
-0.044017
-0.034979
-0.022985
-0.017015
-0.021980
-0.034031
-0.045021
-0.051994
-0.049986
-0.031018
-0.054003
-0.273026
-0.674029
-0.913024
-0.696009
-0.214002
0.126973
0.197991
0.130990
0.037992
-0.034031
-0.054003
-0.043012
-0.042008
-0.043012
-0.025997
-0.003013
0.011994
0.023989
0.040000
0.056011
0.068005
0.068005
0.054003
0.049986
0.070014
0.090990
0.096011
0.095007
0.092998
0.086973
0.089986
0.104993
0.107001
0.081004
0.055007
0.052998
0.061980
0.054003
0.029010
0.015007
0.027001
0.042008
0.033975
0.014003
0.002008
-0.002008
-0.003013
0.002008
-0.001004
-0.018019
-0.032022
-0.022985
-0.004017
-0.004017
-0.018019
-0.021980
-0.011994
-0.005021
-0.012999
-0.020028
-0.016011
-0.011994
-0.017015
-0.018019
-0.007029
-0.006025
-0.019024
-0.012999
0.002008
-0.021980
-0.075983
-0.088982
-0.043012
0.006973
0.018968
0.008982
0.004017
0.004017
0.006973
0.010990
0.008982
0.000000
-0.005021
-0.002008
0.003013
0.004017
0.004017
0.003013
0.002008
0.003013
0.005969
0.000000
-0.015007
-0.024993
-0.028005
-0.032022
-0.033026
-0.021980
-0.011994
-0.011994
-0.015007
-0.016011
-0.021032
-0.028005
-0.029010
-0.029010
-0.037992
-0.036987
-0.028005
-0.140027
-0.481003
-0.836985
-0.810988
-0.374002
0.061980
0.206973
0.164016
0.088982
0.005969
-0.063989
-0.080000
-0.063989
-0.056011
-0.048982
-0.030014
-0.009986
0.002008
0.011994
0.024993
0.034979
0.040000
0.045021
0.056011
0.067001
0.074979
0.084016
0.091994
0.092998
0.085969
0.083012
0.087977
0.087977
0.074979
0.060976
0.057015
0.059972
0.059972
0.048982
0.027001
0.005969
0.004017
0.017015
0.020976
0.002008
-0.023989
-0.032022
-0.021980
-0.014003
-0.017015
-0.018019
-0.017015
-0.024993
-0.037992
-0.040000
-0.031018
-0.025997
-0.027001
-0.029010
-0.030014
-0.032022
-0.033026
-0.032022
-0.033026
-0.033026
-0.027001
-0.018019
-0.023989
-0.057015
-0.095007
-0.102984
-0.074979
-0.043012
-0.031018
-0.029010
-0.022985
-0.017015
-0.020028
-0.024993
-0.025997
-0.015007
0.000000
-0.001004
-0.021032
-0.037992
-0.034031
-0.021032
-0.018019
-0.022985
-0.027001
-0.028005
-0.033026
-0.040000
-0.043012
-0.044017
-0.049986
-0.055007
-0.048982
-0.036987
-0.036987
-0.046025
-0.049986
-0.047029
-0.045021
-0.045021
-0.048982
-0.059024
-0.045021
-0.025997
-0.150013
-0.508004
-0.871015
-0.864990
-0.447028
0.018968
0.214002
0.163012
0.051994
-0.021032
-0.056011
-0.065997
-0.060028
-0.051994
-0.038996
-0.020028
-0.002008
0.004017
0.007978
0.017015
0.027001
0.032022
0.035983
0.038996
0.044017
0.052998
0.062984
0.069010
0.071018
0.072022
0.070014
0.062984
0.051994
0.043012
0.038996
0.037992
0.032022
0.029010
0.036987
0.045969
0.041004
0.022985
0.001004
-0.014003
-0.007978
0.010990
0.016011
-0.001004
-0.015007
-0.015007
-0.010990
-0.015007
-0.025997
-0.040000
-0.049986
-0.046025
-0.030014
-0.014003
-0.015007
-0.031018
-0.041004
-0.036987
-0.029010
-0.023989
-0.017015
-0.007978
-0.005021
-0.021980
-0.060028
-0.096011
-0.092998
-0.044017
-0.001004
-0.010990
-0.044017
-0.035983
0.008982
0.033975
0.019972
0.001004
0.001004
0.005969
0.002008
-0.004017
-0.003013
0.001004
0.000000
-0.007029
-0.014003
-0.014003
-0.005021
0.003013
-0.006025
-0.031018
-0.047029
-0.041004
-0.022985
-0.010990
-0.008982
-0.011994
-0.019024
-0.024993
-0.021980
-0.016011
-0.027001
-0.040000
-0.021980
-0.064993
-0.348005
-0.767027
-0.890988
-0.531993
-0.036987
0.205969
0.196987
0.109009
0.017015
-0.049986
-0.060028
-0.040000
-0.038996
-0.056011
-0.054003
-0.021032
0.021980
0.045021
0.038996
0.020976
0.018968
0.045021
0.078996
0.092998
0.081004
0.067001
0.071018
0.088982
0.102984
0.101980
0.092998
0.085021
0.082008
0.077991
0.073975
0.070014
0.063989
0.049986
0.032022
0.016011
0.014003
0.028005
0.038996
0.029010
0.003013
-0.014003
-0.012999
-0.005021
-0.007029
-0.018019
-0.029010
-0.033026
-0.036987
-0.044017
-0.046025
-0.034979
-0.020028
-0.010990
-0.008982
-0.012999
-0.024993
-0.032022
-0.019024
0.001004
-0.003013
-0.034979
-0.072022
-0.091994
-0.082008
-0.058019
-0.042008
-0.034979
-0.016011
0.004017
0.005969
-0.001004
0.000000
0.001004
-0.007029
-0.014003
-0.014003
-0.010990
-0.012999
-0.020028
-0.025997
-0.023989
-0.021032
-0.024993
-0.031018
-0.033026
-0.033026
-0.036987
-0.043012
-0.043012
-0.034031
-0.027001
-0.031018
-0.041004
-0.047978
-0.050990
-0.047029
-0.037992
-0.035983
-0.040000
-0.021032
-0.025997
-0.221980
-0.631016
-0.910011
-0.727027
-0.247977
0.100976
0.179972
0.129986
0.051994
-0.028005
-0.073026
-0.073026
-0.061032
-0.055007
-0.045021
-0.032022
-0.017015
-0.002008
0.014003
0.028005
0.035983
0.042008
0.047978
0.054003
0.060976
0.070014
0.078996
0.081004
0.075983
0.072970
0.073975
0.077991
0.077991
0.072970
0.062984
0.049986
0.042008
0.040000
0.033975
0.019972
0.008982
0.007978
0.007978
0.002008
-0.007029
-0.012999
-0.018019
-0.022985
-0.029010
-0.034031
-0.034979
-0.027001
-0.017015
-0.016011
-0.023989
-0.034979
-0.040000
-0.034031
-0.021980
-0.022985
-0.037992
-0.046025
-0.035983
-0.020028
-0.010990
-0.015007
-0.034979
-0.072022
-0.099023
-0.091994
-0.060028
-0.036987
-0.034979
-0.033026
-0.012999
0.005969
0.002008
-0.011994
-0.012999
-0.002008
0.002008
-0.006025
-0.014003
-0.015007
-0.016011
-0.021980
-0.027001
-0.025997
-0.024993
-0.040000
-0.061980
-0.065997
-0.046025
-0.028005
-0.020028
-0.009986
-0.002008
-0.005021
-0.010990
-0.011994
-0.020028
-0.034979
-0.038996
-0.036987
-0.036987
-0.014003
-0.007978
-0.177015
-0.565019
-0.888031
-0.790012
-0.315982
0.120000
0.235983
0.128981
0.018968
-0.021980
-0.034979
-0.047029
-0.047978
-0.029010
-0.004017
0.005969
0.000000
-0.002008
0.010990
0.025997
0.036987
0.052998
0.074979
0.088982
0.085969
0.081004
0.086973
0.098019
0.098019
0.083012
0.060976
0.050990
0.067001
0.094003
0.096011
0.072970
0.055007
0.051994
0.047978
0.036987
0.021980
0.008982
0.015007
0.032971
0.030014
0.001004
-0.009986
0.010990
0.023989
0.004017
-0.016011
-0.015007
-0.017015
-0.032022
-0.034031
-0.016011
-0.005021
-0.012999
-0.017015
0.002008
0.027001
0.028005
0.005021
-0.010990
-0.007029
-0.019024
-0.065997
-0.105997
-0.087029
-0.030014
0.006973
0.008982
-0.002008
-0.004017
0.006973
0.029010
0.046973
0.040000
0.015007
0.002008
0.014003
0.025997
0.017015
-0.007978
-0.031018
-0.033026
-0.012999
0.015007
0.021980
-0.001004
-0.028005
-0.030014
-0.007978
0.007978
0.000000
-0.020028
-0.031018
-0.030014
-0.024993
-0.016011
-0.007029
-0.018019
-0.038996
-0.022985
0.002008
-0.135007
-0.511017
-0.861978
-0.812996
-0.370989
0.067001
0.220976
0.163012
0.065997
-0.011994
-0.060028
-0.063989
-0.045021
-0.034979
-0.032022
-0.022985
-0.014003
-0.007978
0.005021
0.023989
0.041004
0.050990
0.065997
0.084016
0.091994
0.085969
0.082008
0.085969
0.087977
0.083012
0.085021
0.089986
0.085021
0.070014
0.067001
0.077991
0.081004
0.064993
0.043012
0.033975
0.029010
0.019972
0.011994
0.009986
0.004017
-0.007978
-0.012999
-0.005021
0.001004
-0.007029
-0.021980
-0.031018
-0.034979
-0.034979
-0.032022
-0.025997
-0.024993
-0.027001
-0.029010
-0.035983
-0.045021
-0.038996
-0.017015
-0.004017
-0.020028
-0.054003
-0.083012
-0.087977
-0.064993
-0.032022
-0.012999
-0.004017
0.006973
0.005021
-0.012999
-0.025997
-0.021032
-0.016011
-0.021980
-0.030014
-0.027001
-0.015007
-0.008982
-0.016011
-0.025997
-0.024993
-0.020028
-0.022985
-0.035983
-0.043012
-0.034979
-0.021980
-0.019024
-0.029010
-0.043012
-0.050990
-0.050990
-0.047029
-0.045021
-0.041004
-0.036987
-0.042008
-0.042008
-0.017015
-0.032022
-0.242008
-0.641002
-0.908003
-0.734001
-0.249985
0.122008
0.189009
0.098968
0.023989
-0.021032
-0.052998
-0.062984
-0.051994
-0.037992
-0.028005
-0.019024
-0.009986
0.002008
0.016011
0.024993
0.029010
0.033975
0.046973
0.062984
0.074979
0.078996
0.075983
0.072022
0.073975
0.081004
0.085021
0.077991
0.067001
0.061980
0.061980
0.060976
0.055007
0.042008
0.028005
0.021980
0.022985
0.017015
-0.003013
-0.022985
-0.032022
-0.032022
-0.025997
-0.011994
0.000000
-0.003013
-0.015007
-0.027001
-0.031018
-0.025997
-0.014003
-0.008982
-0.006025
0.002008
0.005969
-0.001004
-0.012999
-0.033026
-0.070014
-0.103989
-0.099023
-0.063989
-0.033026
-0.009986
0.018968
0.040000
0.034979
0.014003
0.002008
0.005021
0.009986
0.012999
0.005969
-0.005021
-0.010990
-0.008982
-0.007029
-0.009986
-0.007978
0.003013
0.016011
0.021980
0.017015
0.002008
-0.020028
-0.034031
-0.032022
-0.020028
-0.008982
-0.011994
-0.023989
-0.028005
-0.011994
-0.010990
-0.037992
-0.038996
-0.021980
-0.171994
-0.557990
-0.858017
-0.710012
-0.221980
0.175006
0.264992
0.162008
0.049986
-0.008982
-0.034031
-0.048982
-0.055007
-0.049986
-0.030014
0.003013
0.024993
0.018019
0.002008
0.015007
0.050990
0.072022
0.072022
0.077991
0.098968
0.114979
0.111018
0.096011
0.085021
0.090990
0.107001
0.110014
0.089986
0.072970
0.072022
0.072970
0.068005
0.067001
0.067001
0.057015
0.041004
0.034979
0.036987
0.034979
0.024993
0.010990
-0.003013
0.000000
0.018019
0.020976
-0.001004
-0.019024
-0.010990
-0.001004
-0.003013
-0.001004
0.014003
0.016011
-0.017015
-0.065997
-0.087977
-0.075983
-0.054003
-0.037992
-0.020028
0.001004
0.010990
0.011994
0.014003
0.019972
0.019972
0.012999
0.005969
0.005021
0.004017
-0.003013
-0.010990
-0.011994
-0.008982
-0.010990
-0.017015
-0.022985
-0.029010
-0.040000
-0.040000
-0.020028
-0.004017
-0.012999
-0.033026
-0.041004
-0.041004
-0.042008
-0.040000
-0.042008
-0.050990
-0.035983
-0.023989
-0.165020
-0.514029
-0.804014
-0.683010
-0.207029
0.192970
0.250989
0.111018
0.000000
-0.044017
-0.070014
-0.087029
-0.086025
-0.074979
-0.060028
-0.046025
-0.036987
-0.029010
-0.014003
0.007978
0.024993
0.034979
0.043012
0.054003
0.063989
0.067001
0.068005
0.069010
0.067001
0.061980
0.062984
0.069010
0.071018
0.070014
0.067001
0.062984
0.054003
0.042008
0.030014
0.019972
0.016011
0.015007
0.010990
0.007978
0.005021
-0.003013
-0.015007
-0.021032
-0.020028
-0.021032
-0.032022
-0.042008
-0.045021
-0.042008
-0.040000
-0.037992
-0.031018
-0.019024
-0.020028
-0.047029
-0.084016
-0.099023
-0.087977
-0.071018
-0.061032
-0.043012
-0.016011
0.002008
-0.001004
-0.009986
-0.015007
-0.016011
-0.016011
-0.012999
-0.011994
-0.018019
-0.028005
-0.029010
-0.024993
-0.032022
-0.044017
-0.041004
-0.027001
-0.022985
-0.032022
-0.036987
-0.035983
-0.040000
-0.047029
-0.047029
-0.043012
-0.045021
-0.052998
-0.056011
-0.049986
-0.045021
-0.054003
-0.048982
-0.022985
-0.099023
-0.410989
-0.797989
-0.876985
-0.538018
-0.096011
0.134002
0.140976
0.060976
-0.020028
-0.072022
-0.087029
-0.074979
-0.060028
-0.058019
-0.056011
-0.032022
0.003013
0.024993
0.037992
0.052998
0.047978
0.016011
-0.001004
0.024993
0.058019
0.064993
0.067001
0.081004
0.086973
0.075983
0.070014
0.078996
0.086973
0.081004
0.069010
0.062984
0.058968
0.040000
0.015007
0.012999
0.021980
0.016011
0.007978
0.018968
0.030014
0.012999
-0.011994
-0.020028
-0.018019
-0.027001
-0.042008
-0.048982
-0.042008
-0.021980
-0.001004
0.004017
0.001004
0.005021
0.005021
-0.023989
-0.073026
-0.107001
-0.107001
-0.081004
-0.037992
-0.001004
0.015007
0.010990
0.009986
0.016011
0.017015
0.015007
0.019972
0.031018
0.031018
0.010990
-0.009986
-0.014003
-0.008982
-0.014003
-0.021980
-0.009986
0.016011
0.022985
0.003013
-0.014003
-0.011994
-0.007978
-0.020028
-0.033026
-0.023989
-0.012999
-0.022985
-0.038996
-0.029010
-0.011994
-0.018019
-0.031018
-0.083012
-0.298019
-0.661030
-0.844014
-0.587000
-0.103989
0.188005
0.193974
0.101980
0.027001
-0.024993
-0.046025
-0.037992
-0.034031
-0.038996
-0.032022
-0.010990
0.010990
0.022985
0.029010
0.036987
0.048982
0.060976
0.069010
0.072022
0.080000
0.091994
0.100976
0.098968
0.090990
0.089986
0.098968
0.104993
0.098968
0.089986
0.086973
0.085021
0.072970
0.056011
0.045021
0.043012
0.042008
0.038996
0.031018
0.018968
0.005969
0.001004
0.002008
0.002008
-0.006025
-0.018019
-0.019024
-0.009986
-0.006025
-0.018019
-0.034031
-0.033026
-0.014003
0.003013
-0.001004
-0.018019
-0.034031
-0.046025
-0.060028
-0.070014
-0.068005
-0.050990
-0.029010
-0.010990
-0.005021
-0.004017
-0.005021
-0.005021
-0.007029
-0.008982
-0.007978
-0.008982
-0.016011
-0.027001
-0.028005
-0.017015
-0.008982
-0.010990
-0.021032
-0.032022
-0.038996
-0.035983
-0.027001
-0.023989
-0.032022
-0.046025
-0.056011
-0.050990
-0.034979
-0.029010
-0.033026
-0.034979
-0.035983
-0.038996
-0.027001
-0.065997
-0.307000
-0.713024
-0.913024
-0.639998
-0.145997
0.142984
0.156987
0.080000
0.005021
-0.061980
-0.084016
-0.057015
-0.034031
-0.034979
-0.037992
-0.034031
-0.029010
-0.019024
-0.001004
0.016011
0.030014
0.043012
0.050990
0.056011
0.063989
0.070014
0.069010
0.062984
0.067001
0.076987
0.075983
0.067001
0.061980
0.067001
0.065997
0.052998
0.038996
0.032971
0.032022
0.030014
0.024993
0.018019
0.007978
-0.006025
-0.016011
-0.016011
-0.012999
-0.018019
-0.028005
-0.036987
-0.040000
-0.037992
-0.035983
-0.038996
-0.047978
-0.067001
-0.088982
-0.081004
-0.041004
-0.020028
-0.050990
-0.091994
-0.092998
-0.061032
-0.028005
-0.008982
-0.001004
-0.001004
0.002008
0.011994
0.015007
0.009986
0.015007
0.028005
0.025997
0.005021
-0.007978
-0.011994
-0.020028
-0.024993
-0.017015
-0.008982
-0.011994
-0.010990
0.002008
0.004017
-0.015007
-0.029010
-0.027001
-0.031018
-0.046025
-0.049986
-0.032022
-0.016011
-0.023989
-0.041004
-0.021980
0.030014
0.001004
-0.239999
-0.634029
-0.862982
-0.668004
-0.185997
0.181980
0.235983
0.117991
0.020976
-0.027001
-0.061032
-0.068005
-0.041004
-0.017015
-0.011994
-0.002008
0.018968
0.030014
0.030014
0.037992
0.048982
0.049986
0.042008
0.044017
0.060976
0.086973
0.103989
0.107001
0.098019
0.089986
0.090990
0.096011
0.090990
0.081004
0.082008
0.087977
0.077991
0.058019
0.051994
0.051994
0.038996
0.019972
0.014003
0.020976
0.024993
0.016011
-0.004017
-0.021032
-0.021980
-0.012999
-0.007978
-0.009986
-0.011994
-0.008982
-0.003013
0.002008
0.001004
-0.008982
-0.034031
-0.067001
-0.087029
-0.083012
-0.063989
-0.042008
-0.020028
-0.002008
0.004017
0.000000
-0.006025
-0.008982
-0.007029
-0.003013
0.001004
0.001004
-0.001004
-0.005021
-0.011994
-0.016011
-0.015007
-0.014003
-0.022985
-0.035983
-0.036987
-0.027001
-0.022985
-0.030014
-0.035983
-0.034031
-0.029010
-0.030014
-0.031018
-0.027001
-0.029010
-0.049986
-0.056011
-0.020028
-0.060028
-0.335006
-0.728031
-0.856009
-0.552021
-0.088982
0.176011
0.179972
0.073975
-0.017015
-0.059024
-0.064993
-0.059024
-0.058019
-0.061980
-0.059024
-0.044017
-0.022985
-0.007029
0.005021
0.018968
0.032022
0.035983
0.037992
0.045969
0.052998
0.050990
0.046973
0.054003
0.067001
0.073975
0.070014
0.065997
0.063989
0.063989
0.062984
0.058019
0.046973
0.029010
0.009986
-0.001004
-0.004017
-0.009986
-0.027001
-0.031018
-0.007029
0.018019
0.014003
-0.007029
-0.023989
-0.036987
-0.042008
-0.036987
-0.034979
-0.047029
-0.046025
-0.018019
0.005021
-0.004017
-0.027001
-0.042008
-0.056011
-0.072022
-0.075983
-0.060028
-0.036987
-0.027001
-0.025997
-0.008982
0.023989
0.033975
0.002008
-0.027001
-0.017015
0.007978
0.015007
0.005969
0.000000
0.005969
0.014003
0.007978
-0.007978
-0.017015
-0.020028
-0.023989
-0.020028
-0.015007
-0.028005
-0.035983
-0.016011
0.004017
-0.002008
-0.016011
-0.014003
-0.011994
-0.030014
-0.040000
-0.022985
-0.090990
-0.381979
-0.748003
-0.804014
-0.445020
-0.007029
0.195983
0.182984
0.100976
0.012999
-0.047029
-0.054003
-0.033026
-0.024993
-0.031018
-0.027001
-0.012999
0.001004
0.016011
0.030014
0.035983
0.034979
0.040000
0.056011
0.076987
0.086973
0.085021
0.076987
0.075983
0.085969
0.096011
0.096011
0.091994
0.091994
0.091994
0.081004
0.067001
0.056011
0.048982
0.045969
0.049986
0.054003
0.044017
0.019972
0.001004
-0.002008
0.001004
-0.003013
-0.008982
-0.011994
-0.015007
-0.020028
-0.021980
-0.020028
-0.018019
-0.022985
-0.029010
-0.022985
-0.005021
-0.002008
-0.031018
-0.074030
-0.098019
-0.088982
-0.061980
-0.034979
-0.016011
-0.007978
-0.006025
-0.004017
0.005021
0.012999
0.007978
-0.010990
-0.024993
-0.022985
-0.016011
-0.015007
-0.018019
-0.018019
-0.017015
-0.022985
-0.034031
-0.041004
-0.040000
-0.034979
-0.034031
-0.034031
-0.033026
-0.028005
-0.025997
-0.029010
-0.041004
-0.054003
-0.059024
-0.061032
-0.055007
-0.025997
-0.056011
-0.309009
-0.721002
-0.904990
-0.628004
-0.154030
0.130990
0.160000
0.081004
-0.007029
-0.065997
-0.085021
-0.099023
-0.121004
-0.111018
-0.061032
-0.024993
-0.020028
-0.003013
0.032022
0.048982
0.047978
0.059972
0.078996
0.076987
0.062984
0.068005
0.091994
0.108005
0.104993
0.091994
0.075983
0.072970
0.085021
0.097015
0.090990
0.070014
0.058968
0.063989
0.064993
0.045021
0.030014
0.042008
0.047978
0.016011
-0.022985
-0.022985
-0.007978
-0.010990
-0.016011
-0.003013
0.009986
0.008982
0.011994
0.019972
0.012999
-0.012999
-0.029010
-0.021032
-0.004017
0.004017
0.002008
-0.003013
-0.015007
-0.035983
-0.056011
-0.052998
-0.021980
0.018968
0.043012
0.038996
0.018019
0.003013
0.005021
0.015007
0.020976
0.018968
0.016011
0.014003
0.009986
0.005969
0.005021
0.005021
0.002008
-0.007029
-0.016011
-0.011994
0.004017
0.015007
0.003013
-0.021032
-0.031018
-0.018019
-0.003013
-0.004017
-0.015007
-0.021980
-0.031018
-0.029010
0.003013
-0.032022
-0.300027
-0.717989
-0.891992
-0.610988
-0.144993
0.140976
0.192022
0.132998
0.047978
-0.015007
-0.032022
-0.030014
-0.032022
-0.028005
-0.016011
-0.008982
-0.005021
0.008982
0.030014
0.044017
0.049986
0.052998
0.055007
0.058968
0.068005
0.084016
0.092998
0.095007
0.091994
0.088982
0.085021
0.085969
0.091994
0.097015
0.091994
0.084016
0.075983
0.063989
0.051994
0.045969
0.043012
0.032022
0.018968
0.011994
0.008982
0.002008
-0.001004
-0.001004
-0.002008
-0.006025
-0.006025
-0.005021
-0.007978
-0.017015
-0.031018
-0.041004
-0.037992
-0.023989
-0.008982
-0.005021
-0.024993
-0.062984
-0.086025
-0.072022
-0.036987
-0.008982
0.003013
0.004017
0.002008
-0.003013
-0.010990
-0.015007
-0.006025
0.007978
0.015007
0.009986
-0.004017
-0.015007
-0.014003
-0.003013
0.001004
-0.005021
-0.015007
-0.025997
-0.029010
-0.020028
-0.008982
-0.009986
-0.019024
-0.022985
-0.024993
-0.034031
-0.047029
-0.047029
-0.031018
-0.020028
-0.010990
0.004017
-0.052998
-0.305996
-0.682006
-0.860025
-0.621979
-0.149009
0.180976
0.218019
0.104993
0.016011
-0.018019
-0.032022
-0.032022
-0.014003
-0.004017
-0.017015
-0.023989
0.003013
0.030014
0.020976
0.009986
0.050990
0.112970
0.121004
0.081004
0.070014
0.109009
0.134002
0.110014
0.073975
0.071018
0.088982
0.100976
0.107001
0.110014
0.108005
0.098968
0.091994
0.084016
0.073975
0.067001
0.058968
0.043012
0.032022
0.037992
0.051994
0.049986
0.030014
0.009986
0.005021
0.016011
0.028005
0.022985
-0.001004
-0.016011
0.000000
0.031018
0.045021
0.022985
-0.020028
-0.049986
-0.047978
-0.029010
-0.011994
0.005969
0.019972
0.019972
0.015007
0.020976
0.030014
0.030014
0.029010
0.032022
0.030014
0.024993
0.029010
0.034979
0.032971
0.024993
0.018019
0.008982
-0.004017
-0.005021
0.006973
0.012999
0.004017
-0.006025
-0.002008
0.008982
0.005969
-0.012999
-0.022985
-0.007029
0.015007
0.012999
0.006973
0.011994
-0.065997
-0.341031
-0.691992
-0.791016
-0.496010
-0.048982
0.210990
0.215006
0.110014
0.022985
-0.022985
-0.037992
-0.031018
-0.022985
-0.025997
-0.023989
-0.009986
0.006973
0.018019
0.029010
0.045021
0.062984
0.072970
0.073975
0.071018
0.075983
0.088982
0.101980
0.107001
0.103989
0.103989
0.109009
0.114979
0.115983
0.109009
0.096011
0.080000
0.072970
0.081004
0.087977
0.074979
0.045969
0.029010
0.031018
0.036987
0.032022
0.019972
0.011994
0.009986
0.008982
0.008982
0.006973
0.003013
-0.003013
-0.005021
0.001004
0.016011
0.018968
0.002008
-0.012999
-0.003013
0.010990
-0.005021
-0.040000
-0.058019
-0.054003
-0.041004
-0.017015
0.016011
0.031018
0.018019
0.002008
-0.001004
0.003013
0.002008
-0.002008
-0.003013
0.004017
0.014003
0.018019
0.010990
0.001004
-0.001004
0.008982
0.015007
0.005969
-0.009986
-0.014003
-0.001004
0.008982
0.001004
-0.012999
-0.018019
-0.012999
-0.005021
-0.002008
-0.005021
-0.005021
-0.004017
-0.011994
-0.009986
0.009986
-0.055007
-0.341031
-0.736009
-0.861978
-0.538018
-0.054003
0.196987
0.179023
0.089986
0.029010
-0.016011
-0.038996
-0.028005
-0.007978
-0.005021
-0.008982
-0.004017
0.014003
0.034979
0.045021
0.047978
0.056011
0.070014
0.081004
0.081004
0.082008
0.092998
0.107001
0.107001
0.098968
0.097015
0.103989
0.105997
0.100976
0.098019
0.101980
0.104993
0.096011
0.078996
0.062984
0.052998
0.050990
0.048982
0.041004
0.029010
0.021980
0.020976
0.019972
0.012999
0.005969
0.005021
0.006973
0.005021
0.002008
0.001004
0.000000
-0.003013
-0.004017
0.003013
0.009986
0.004017
-0.008982
-0.009986
0.002008
0.008982
0.006973
0.016011
0.032022
0.022985
-0.021980
-0.060028
-0.056011
-0.021032
0.014003
0.031018
0.025997
0.011994
0.007978
0.020976
0.032022
0.027001
0.018019
0.019972
0.029010
0.036987
0.042008
0.037992
0.031018
0.028005
0.022985
0.011994
0.005021
0.010990
0.023989
0.032022
0.029010
0.015007
-0.001004
-0.003013
0.008982
0.017015
0.012999
0.004017
0.005969
0.014003
0.021980
0.037992
0.004017
-0.215006
-0.597990
-0.830011
-0.654001
-0.227001
0.102984
0.219023
0.205020
0.125021
0.024993
-0.023989
-0.012999
-0.002008
-0.010990
-0.004017
0.022985
0.033975
0.027001
0.035983
0.070014
0.096011
0.105997
0.112970
0.118995
0.113975
0.102984
0.096011
0.098968
0.112022
0.132998
0.144993
0.137015
0.118995
0.109009
0.110014
0.112970
0.113975
0.110014
0.096011
0.081004
0.071018
0.063989
0.056011
0.049986
0.047978
0.045969
0.042008
0.037992
0.032971
0.024993
0.020976
0.020976
0.015007
0.008982
0.022985
0.045021
0.040000
0.005021
-0.016011
0.004017
0.033975
0.034979
0.012999
0.001004
0.015007
0.034979
0.041004
0.029010
0.003013
-0.022985
-0.034031
-0.024993
-0.008982
0.010990
0.036987
0.051994
0.036987
0.008982
0.000000
0.010990
0.022985
0.021980
0.012999
0.011994
0.022985
0.032022
0.027001
0.012999
0.005021
0.005021
0.006973
0.003013
-0.004017
-0.006025
0.001004
0.008982
0.005021
-0.004017
-0.004017
-0.001004
-0.006025
-0.012999
-0.009986
-0.011994
-0.016011
0.009986
-0.005021
-0.220027
-0.607027
-0.839997
-0.670012
-0.247029
0.097015
0.209985
0.161004
0.067001
-0.003013
-0.027001
-0.025997
-0.024993
-0.029010
-0.025997
-0.008982
0.014003
0.030014
0.037992
0.047978
0.059972
0.070014
0.077991
0.084016
0.084016
0.081004
0.085969
0.096011
0.103989
0.109009
0.113975
0.114979
0.103989
0.091994
0.085969
0.085021
0.084016
0.082008
0.078996
0.071018
0.056011
0.035983
0.022985
0.020976
0.022985
0.017015
0.005969
0.004017
0.009986
0.008982
-0.001004
-0.010990
-0.017015
-0.021032
-0.019024
-0.009986
-0.001004
0.002008
0.000000
-0.003013
-0.003013
-0.001004
-0.005021
-0.012999
-0.011994
0.001004
0.008982
0.000000
-0.014003
-0.015007
-0.003013
0.005969
0.006973
0.004017
-0.001004
-0.006025
-0.004017
0.005021
-0.005021
-0.045021
-0.088982
-0.092998
-0.055007
-0.016011
-0.005021
-0.010990
-0.003013
0.011994
0.014003
0.005969
0.005021
0.006973
0.004017
0.000000
0.006973
0.019972
0.021980
0.007978
-0.007029
-0.006025
0.007978
0.014003
0.005021
-0.005021
-0.003013
0.003013
0.003013
-0.002008
-0.009986
-0.019024
-0.021032
-0.019024
-0.023989
-0.034031
-0.029010
-0.012999
-0.012999
-0.028005
-0.010990
0.008982
-0.137015
-0.517990
-0.845018
-0.752020
-0.309009
0.072970
0.182984
0.138967
0.073975
0.012999
-0.027001
-0.033026
-0.019024
0.003013
0.020976
0.019972
0.004017
0.001004
0.023989
0.058968
0.077991
0.081004
0.087977
0.102984
0.107001
0.096011
0.090990
0.102984
0.120000
0.130990
0.128981
0.112022
0.086973
0.074979
0.086973
0.110014
0.118995
0.103989
0.080000
0.063989
0.056011
0.047978
0.038996
0.034979
0.030014
0.027001
0.032022
0.037992
0.034979
0.025997
0.018019
0.005969
-0.008982
-0.008982
0.014003
0.031018
0.018019
-0.007978
-0.017015
-0.003013
0.017015
0.023989
0.018968
0.018968
0.030014
0.029010
0.002008
-0.034979
-0.051994
-0.047978
-0.035983
-0.018019
0.007978
0.024993
0.022985
0.017015
0.028005
0.045021
0.045021
0.030014
0.032022
0.057015
0.070014
0.046973
0.009986
-0.006025
0.005021
0.023989
0.028005
0.014003
0.003013
0.012999
0.028005
0.028005
0.020976
0.016011
0.002008
-0.020028
-0.023989
0.001004
0.019972
0.008982
-0.008982
-0.015007
-0.017015
-0.003013
0.019972
-0.083012
-0.414002
-0.754977
-0.748003
-0.377014
0.025997
0.219971
0.219023
0.117991
-0.003013
-0.070014
-0.067001
-0.043012
-0.034031
-0.031018
-0.016011
0.008982
0.032022
0.046973
0.056011
0.062984
0.070014
0.073975
0.081004
0.092998
0.107001
0.110014
0.101980
0.094003
0.099972
0.115983
0.122008
0.111018
0.100976
0.102984
0.099972
0.078996
0.055007
0.045969
0.050990
0.051994
0.043012
0.032022
0.028005
0.028005
0.023989
0.017015
0.015007
0.017015
0.012999
-0.003013
-0.020028
-0.023989
-0.017015
-0.012999
-0.012999
-0.011994
-0.009986
-0.015007
-0.018019
-0.010990
-0.005021
-0.005021
-0.004017
0.004017
0.005969
-0.004017
-0.022985
-0.045021
-0.065997
-0.074030
-0.061032
-0.040000
-0.031018
-0.027001
-0.007978
0.016011
0.018968
0.000000
-0.010990
-0.005021
-0.002008
-0.007029
-0.007978
-0.003013
0.000000
0.000000
0.002008
0.003013
-0.002008
-0.008982
-0.012999
-0.016011
-0.019024
-0.019024
-0.021032
-0.029010
-0.037992
-0.037992
-0.031018
-0.027001
-0.031018
-0.034031
-0.032022
-0.022985
-0.018019
-0.030014
-0.037992
-0.009986
-0.021032
-0.241003
-0.647027
-0.895004
-0.715981
-0.273026
0.077991
0.192970
0.148005
0.049986
-0.023989
-0.043012
-0.034031
-0.035983
-0.051994
-0.055007
-0.031018
0.005021
0.028005
0.032022
0.032022
0.037992
0.045021
0.054003
0.063989
0.070014
0.070014
0.070014
0.074979
0.084016
0.090990
0.091994
0.092998
0.094003
0.089986
0.076987
0.064993
0.063989
0.067001
0.056011
0.037992
0.027001
0.023989
0.018019
0.015007
0.020976
0.018968
-0.005021
-0.030014
-0.033026
-0.024993
-0.019024
-0.008982
0.004017
0.002008
-0.017015
-0.031018
-0.029010
-0.020028
-0.011994
-0.003013
0.005021
0.005969
-0.003013
-0.015007
-0.021980
-0.024993
-0.021032
-0.007978
0.004017
0.005021
0.005021
0.005021
-0.008982
-0.042008
-0.070014
-0.065997
-0.036987
-0.009986
-0.004017
-0.014003
-0.015007
0.006973
0.032971
0.036987
0.021980
0.012999
0.010990
0.004017
-0.005021
-0.003013
0.007978
0.007978
0.004017
0.009986
0.017015
0.003013
-0.020028
-0.020028
-0.004017
-0.008982
-0.033026
-0.034979
-0.012999
-0.006025
-0.030014
-0.045021
-0.022985
0.017015
0.031018
-0.003013
-0.045021
-0.024993
-0.009986
-0.203012
-0.608980
-0.861029
-0.652997
-0.180027
0.147001
0.203012
0.136011
0.050990
-0.029010
-0.067001
-0.042008
0.000000
0.010990
0.000000
-0.003013
0.003013
0.010990
0.027001
0.056011
0.077991
0.080000
0.068005
0.063989
0.078996
0.098019
0.104993
0.102984
0.103989
0.108005
0.107001
0.103989
0.102984
0.105997
0.104993
0.095007
0.073975
0.052998
0.042008
0.038996
0.041004
0.043012
0.044017
0.034979
0.023989
0.018968
0.018019
0.014003
0.007978
-0.001004
-0.007978
-0.007029
0.001004
0.004017
-0.003013
-0.008982
-0.007029
-0.007029
-0.010990
-0.009986
-0.005021
-0.007029
-0.012999
-0.009986
0.000000
-0.008982
-0.045021
-0.082008
-0.094003
-0.080000
-0.055007
-0.034031
-0.012999
0.009986
0.023989
0.015007
-0.007029
-0.012999
-0.001004
0.009986
0.008982
0.001004
-0.008982
-0.020028
-0.028005
-0.027001
-0.019024
-0.014003
-0.015007
-0.018019
-0.018019
-0.021032
-0.027001
-0.033026
-0.034979
-0.030014
-0.021980
-0.016011
-0.017015
-0.024993
-0.033026
-0.035983
-0.040000
-0.048982
-0.040000
-0.005021
-0.047978
-0.304992
-0.691992
-0.866999
-0.626999
-0.175006
0.134002
0.183988
0.103989
0.018968
-0.034031
-0.055007
-0.051994
-0.042008
-0.032022
-0.023989
-0.022985
-0.018019
0.002008
0.024993
0.034979
0.040000
0.048982
0.059972
0.064993
0.067001
0.067001
0.067001
0.073975
0.089986
0.098019
0.091994
0.082008
0.076987
0.072970
0.072022
0.070014
0.064993
0.058019
0.051994
0.042008
0.027001
0.014003
0.001004
-0.009986
-0.015007
-0.009986
-0.004017
-0.002008
-0.003013
-0.009986
-0.021980
-0.032022
-0.032022
-0.024993
-0.019024
-0.016011
-0.015007
-0.020028
-0.024993
-0.024993
-0.023989
-0.030014
-0.038996
-0.038996
-0.022985
-0.002008
0.005969
0.001004
-0.007978
-0.024993
-0.062984
-0.101032
-0.101980
-0.065997
-0.034031
-0.029010
-0.031018
-0.021980
-0.015007
-0.020028
-0.016011
0.005021
0.010990
-0.010990
-0.031018
-0.027001
-0.017015
-0.020028
-0.033026
-0.044017
-0.043012
-0.029010
-0.017015
-0.018019
-0.024993
-0.024993
-0.024993
-0.032022
-0.036987
-0.032022
-0.029010
-0.024993
-0.008982
-0.001004
-0.017015
-0.034031
-0.022985
-0.005021
-0.010990
-0.007978
-0.005021
-0.147001
-0.515982
-0.864990
-0.821030
-0.382983
0.050990
0.196987
0.141980
0.060976
-0.005021
-0.056011
-0.065997
-0.036987
-0.011994
-0.007978
-0.007978
-0.002008
0.007978
0.021980
0.042008
0.057015
0.055007
0.047978
0.059972
0.088982
0.102984
0.088982
0.070014
0.072970
0.094003
0.104993
0.092998
0.072022
0.070014
0.086973
0.094003
0.074979
0.056011
0.054003
0.051994
0.035983
0.019972
0.017015
0.016011
0.014003
0.015007
0.011994
-0.008982
-0.022985
-0.010990
0.004017
-0.005021
-0.019024
-0.018019
-0.007978
-0.001004
-0.002008
-0.017015
-0.030014
-0.020028
0.005021
0.015007
0.001004
-0.016011
-0.021032
-0.021980
-0.029010
-0.042008
-0.054003
-0.061032
-0.056011
-0.041004
-0.024993
-0.011994
0.006973
0.023989
0.019972
0.004017
0.005021
0.021980
0.022985
0.007978
-0.005021
-0.011994
-0.017015
-0.021032
-0.017015
-0.007029
0.004017
0.004017
-0.009986
-0.024993
-0.029010
-0.023989
-0.022985
-0.028005
-0.035983
-0.041004
-0.038996
-0.034031
-0.031018
-0.031018
-0.023989
-0.017015
-0.027001
-0.042008
-0.023989
-0.011994
-0.155983
-0.509008
-0.826999
-0.781030
-0.381031
0.025997
0.189009
0.160000
0.073975
-0.007029
-0.056011
-0.061980
-0.050990
-0.048982
-0.037992
-0.016011
-0.006025
-0.007029
0.004017
0.022985
0.032971
0.037992
0.051994
0.070014
0.077991
0.075983
0.069010
0.065997
0.070014
0.080000
0.087977
0.095007
0.095007
0.080000
0.061980
0.058019
0.061980
0.058968
0.042008
0.019972
0.005969
0.006973
0.015007
0.016011
0.008982
0.002008
-0.003013
-0.008982
-0.020028
-0.027001
-0.031018
-0.034031
-0.038996
-0.033026
-0.017015
-0.010990
-0.021980
-0.034031
-0.038996
-0.041004
-0.042008
-0.040000
-0.033026
-0.020028
-0.016011
-0.034031
-0.069010
-0.091994
-0.085021
-0.061032
-0.040000
-0.034979
-0.032022
-0.016011
0.008982
0.016011
-0.001004
-0.021032
-0.025997
-0.019024
-0.016011
-0.022985
-0.033026
-0.034979
-0.027001
-0.020028
-0.021980
-0.023989
-0.019024
-0.014003
-0.019024
-0.031018
-0.036987
-0.034031
-0.024993
-0.024993
-0.040000
-0.054003
-0.047029
-0.029010
-0.021980
-0.028005
-0.044017
-0.052998
-0.035983
-0.045021
-0.230013
-0.604015
-0.879997
-0.753024
-0.305996
0.084016
0.205969
0.152022
0.070014
0.004017
-0.045021
-0.064993
-0.058019
-0.044017
-0.037992
-0.032022
-0.007978
0.029010
0.045021
0.031018
0.027001
0.058968
0.090990
0.085969
0.064993
0.068005
0.090990
0.099972
0.089986
0.080000
0.073975
0.067001
0.065997
0.087977
0.113975
0.110014
0.077991
0.056011
0.058019
0.051994
0.024993
0.002008
0.003013
0.018968
0.029010
0.028005
0.021980
0.019972
0.011994
-0.008982
-0.018019
-0.002008
0.007978
-0.011994
-0.025997
-0.007029
0.019972
0.019972
0.002008
-0.005021
-0.004017
-0.027001
-0.077991
-0.102984
-0.074030
-0.032022
-0.022985
-0.022985
-0.001004
0.027001
0.033975
0.018019
0.002008
0.005021
0.032022
0.054003
0.038996
-0.002008
-0.028005
-0.019024
0.001004
0.000000
-0.012999
-0.007978
0.018019
0.037992
0.027001
-0.008982
-0.034031
-0.025997
0.002008
0.010990
-0.008982
-0.031018
-0.034979
-0.024993
-0.015007
-0.014003
-0.012999
0.005969
-0.020028
-0.243012
-0.631016
-0.841002
-0.605019
-0.139023
0.163012
0.212998
0.155983
0.068005
-0.024993
-0.073026
-0.062984
-0.042008
-0.033026
-0.021980
-0.006025
0.008982
0.028005
0.048982
0.057015
0.045969
0.032971
0.038996
0.059972
0.078996
0.087977
0.096011
0.104993
0.108005
0.103989
0.098968
0.099972
0.101980
0.098968
0.098019
0.098968
0.091994
0.072970
0.057015
0.051994
0.045969
0.031018
0.020976
0.020976
0.019972
0.009986
0.003013
0.003013
0.001004
-0.006025
-0.010990
-0.015007
-0.016011
-0.011994
-0.007978
-0.010990
-0.018019
-0.021032
-0.018019
-0.007978
-0.001004
-0.019024
-0.062984
-0.092998
-0.085021
-0.056011
-0.031018
-0.007029
0.015007
0.021980
0.010990
0.001004
0.002008
0.000000
-0.008982
-0.014003
-0.007978
-0.001004
0.000000
0.000000
-0.004017
-0.012999
-0.021032
-0.017015
-0.008982
-0.008982
-0.016011
-0.016011
-0.011994
-0.011994
-0.020028
-0.031018
-0.038996
-0.043012
-0.042008
-0.036987
-0.032022
-0.029010
-0.025997
-0.005021
0.008982
-0.120000
-0.486024
-0.859021
-0.839997
-0.403011
0.032022
0.171994
0.123012
0.062984
0.018019
-0.025997
-0.045021
-0.040000
-0.031018
-0.027001
-0.030014
-0.029010
-0.007029
0.027001
0.048982
0.057015
0.065997
0.073975
0.069010
0.059972
0.060976
0.072970
0.083012
0.088982
0.097015
0.100976
0.098968
0.092998
0.089986
0.088982
0.085021
0.071018
0.055007
0.046973
0.046973
0.043012
0.027001
0.008982
0.005021
0.010990
0.012999
0.005021
-0.007029
-0.019024
-0.021980
-0.009986
0.004017
-0.001004
-0.011994
0.001004
0.027001
0.023989
-0.017015
-0.050990
-0.035983
0.005969
0.027001
0.018968
0.009986
0.004017
-0.021032
-0.057015
-0.068005
-0.049986
-0.034979
-0.024993
0.001004
0.025997
0.025997
0.021980
0.035983
0.043012
0.016011
-0.011994
0.000000
0.030014
0.035983
0.018019
0.002008
-0.003013
-0.001004
0.005969
0.007978
-0.006025
-0.022985
-0.021980
0.000000
0.020976
0.022985
0.011994
0.001004
-0.010990
-0.022985
-0.023989
-0.014003
-0.016011
-0.027001
-0.007029
-0.005021
-0.190013
-0.572997
-0.831016
-0.663987
-0.215006
0.129986
0.214002
0.154979
0.077991
0.016011
-0.027001
-0.043012
-0.034031
-0.018019
-0.005021
0.005969
0.017015
0.027001
0.034979
0.045021
0.056011
0.062984
0.072022
0.090990
0.110014
0.109009
0.094003
0.095007
0.125021
0.149009
0.138019
0.120000
0.117991
0.114979
0.102984
0.101980
0.103989
0.082008
0.055007
0.054003
0.069010
0.064993
0.043012
0.027001
0.032971
0.046973
0.043012
0.016011
-0.002008
0.015007
0.040000
0.029010
-0.008982
-0.027001
-0.011994
0.008982
0.012999
0.006973
0.003013
0.005021
0.001004
-0.020028
-0.049986
-0.065997
-0.058019
-0.037992
-0.016011
0.005969
0.022985
0.021980
0.009986
0.008982
0.021980
0.025997
0.012999
-0.001004
-0.005021
-0.002008
0.006973
0.016011
0.011994
0.000000
-0.003013
0.000000
-0.003013
-0.010990
-0.016011
-0.021032
-0.024993
-0.020028
-0.007978
0.001004
-0.006025
-0.020028
-0.020028
-0.012999
-0.019024
-0.027001
-0.006025
-0.041004
-0.299023
-0.705995
-0.869007
-0.569984
-0.101032
0.156987
0.179972
0.127977
0.059972
-0.017015
-0.056011
-0.048982
-0.034979
-0.031018
-0.022985
-0.014003
-0.009986
0.000000
0.019972
0.040000
0.049986
0.056011
0.062984
0.067001
0.070014
0.080000
0.092998
0.100976
0.100976
0.101980
0.101980
0.096011
0.085021
0.076987
0.078996
0.083012
0.081004
0.071018
0.057015
0.045021
0.037992
0.035983
0.034979
0.027001
0.011994
-0.001004
0.002008
0.011994
0.009986
-0.007978
-0.024993
-0.025997
-0.019024
-0.016011
-0.017015
-0.008982
0.004017
0.006973
-0.007029
-0.015007
-0.008982
-0.011994
-0.038996
-0.063989
-0.065997
-0.055007
-0.040000
-0.009986
0.022985
0.027001
0.008982
0.003013
0.012999
0.016011
0.009986
0.005021
0.005969
0.009986
0.012999
0.012999
0.010990
0.006973
0.002008
-0.005021
-0.011994
-0.016011
-0.016011
-0.015007
-0.012999
-0.010990
-0.014003
-0.020028
-0.019024
-0.008982
-0.004017
-0.007978
-0.018019
-0.032022
-0.037992
-0.019024
-0.050990
-0.281003
-0.675981
-0.901978
-0.678994
-0.185997
0.157991
0.204016
0.114979
0.044017
0.003013
-0.025997
-0.038996
-0.042008
-0.037992
-0.021980
0.003013
0.030014
0.051994
0.060976
0.056011
0.051994
0.060976
0.078996
0.089986
0.087977
0.085021
0.094003
0.104993
0.108005
0.105997
0.110014
0.113975
0.107001
0.098019
0.101980
0.112022
0.111018
0.098019
0.075983
0.048982
0.032022
0.037992
0.051994
0.051994
0.037992
0.027001
0.028005
0.032022
0.029010
0.022985
0.018019
0.001004
-0.024993
-0.031018
-0.002008
0.032022
0.038996
0.022985
0.011994
0.015007
0.022985
0.025997
0.018968
-0.002008
-0.036987
-0.067001
-0.059024
-0.016011
0.018019
0.023989
0.025997
0.038996
0.051994
0.049986
0.037992
0.022985
0.011994
0.016011
0.033975
0.046973
0.040000
0.027001
0.024993
0.030014
0.030014
0.020976
0.008982
0.002008
0.005021
0.009986
0.008982
0.004017
0.006973
0.012999
0.011994
0.008982
0.015007
0.010990
-0.017015
-0.027001
0.002008
-0.051994
-0.338018
-0.724015
-0.823986
-0.478994
0.004017
0.245020
0.219023
0.110014
0.019972
-0.037992
-0.054003
-0.036987
-0.020028
-0.007978
0.008982
0.020976
0.018019
0.017015
0.036987
0.062984
0.070014
0.063989
0.072970
0.098968
0.116987
0.121004
0.116987
0.108005
0.097015
0.098968
0.111018
0.116987
0.110014
0.105997
0.108005
0.100976
0.085021
0.077991
0.085021
0.081004
0.062984
0.049986
0.047978
0.036987
0.017015
0.014003
0.022985
0.015007
-0.007978
-0.016011
-0.006025
0.003013
0.003013
0.003013
0.010990
0.018968
0.018019
0.010990
0.005969
0.005021
0.002008
-0.002008
0.005021
0.019972
0.019972
-0.007978
-0.048982
-0.067001
-0.055007
-0.031018
-0.011994
0.000000
0.005021
0.006973
0.017015
0.023989
0.015007
0.001004
0.005969
0.020976
0.018968
0.005021
0.002008
0.007978
0.008982
0.001004
-0.007029
-0.011994
-0.016011
-0.017015
-0.010990
-0.005021
-0.005021
-0.009986
-0.016011
-0.015007
-0.008982
-0.011994
-0.025997
-0.029010
-0.010990
0.005021
0.005969
0.017015
-0.009986
-0.236987
-0.652997
-0.901029
-0.685019
-0.202008
0.134002
0.201004
0.139972
0.057015
-0.006025
-0.024993
-0.019024
-0.020028
-0.022985
-0.012999
0.005021
0.021980
0.037992
0.049986
0.057015
0.069010
0.078996
0.077991
0.073975
0.077991
0.082008
0.078996
0.082008
0.100976
0.117991
0.117991
0.107001
0.101980
0.096011
0.078996
0.061980
0.069010
0.095007
0.101980
0.073975
0.046973
0.046973
0.059972
0.057015
0.043012
0.032022
0.021980
0.012999
0.009986
0.017015
0.020976
0.015007
0.005969
0.004017
0.008982
0.008982
0.002008
0.006973
0.027001
0.030014
0.008982
-0.006025
0.005021
0.022985
0.024993
0.007978
-0.018019
-0.030014
-0.021032
-0.008982
-0.004017
0.010990
0.036987
0.048982
0.036987
0.018019
0.009986
0.016011
0.030014
0.045021
0.050990
0.045021
0.032971
0.030014
0.041004
0.045021
0.021980
-0.005021
0.005969
0.042008
0.048982
0.018019
-0.004017
0.005021
0.018019
0.020976
0.022985
0.024993
0.018968
0.007978
0.005021
0.005021
0.006973
0.027001
0.009986
-0.198995
-0.592021
-0.828003
-0.622983
-0.167977
0.150013
0.224992
0.179972
0.095007
0.014003
-0.011994
-0.005021
-0.016011
-0.022985
0.006973
0.045021
0.047978
0.032022
0.040000
0.071018
0.094003
0.094003
0.088982
0.095007
0.112022
0.127977
0.135007
0.135007
0.134002
0.136011
0.135007
0.128981
0.126973
0.128981
0.126973
0.114979
0.100976
0.091994
0.088982
0.091994
0.097015
0.085021
0.060976
0.050990
0.058968
0.059972
0.042008
0.022985
0.011994
0.009986
0.012999
0.015007
0.009986
0.008982
0.018968
0.020976
0.005969
-0.001004
0.019972
0.042008
0.025997
-0.017015
-0.046025
-0.045021
-0.028005
-0.006025
0.020976
0.043012
0.045021
0.032022
0.023989
0.032022
0.044017
0.046973
0.043012
0.037992
0.029010
0.012999
0.006973
0.017015
0.027001
0.019972
0.006973
0.003013
0.005969
0.008982
0.010990
0.014003
0.008982
0.000000
-0.002008
-0.003013
-0.007978
-0.007029
0.007978
0.012999
-0.004017
-0.002008
0.017015
-0.080000
-0.406024
-0.779021
-0.830011
-0.457014
0.009986
0.230013
0.196987
0.098968
0.031018
-0.010990
-0.029010
-0.030014
-0.030014
-0.028005
-0.010990
0.017015
0.037992
0.042008
0.041004
0.052998
0.072022
0.081004
0.078996
0.082008
0.090990
0.097015
0.102984
0.113975
0.125021
0.127977
0.124016
0.122008
0.122008
0.114979
0.098968
0.085969
0.080000
0.074979
0.070014
0.067001
0.065997
0.061980
0.056011
0.048982
0.033975
0.018019
0.018019
0.031018
0.034979
0.023989
0.015007
0.011994
0.008982
0.009986
0.019972
0.025997
0.019972
0.011994
0.008982
0.016011
0.020976
0.007978
-0.029010
-0.062984
-0.065997
-0.040000
-0.007029
0.020976
0.042008
0.048982
0.041004
0.025997
0.016011
0.010990
0.008982
0.011994
0.024993
0.038996
0.036987
0.022985
0.021980
0.037992
0.042008
0.025997
0.012999
0.014003
0.012999
0.007978
0.007978
0.016011
0.021980
0.018968
0.008982
0.003013
0.011994
0.025997
0.025997
0.003013
-0.002008
0.031018
-0.025997
-0.340027
-0.750012
-0.831016
-0.461979
-0.004017
0.214002
0.210990
0.131994
0.041004
-0.022985
-0.022985
0.012999
0.030014
0.019972
0.016011
0.034979
0.061980
0.073975
0.062984
0.045021
0.051994
0.095007
0.137015
0.142984
0.127977
0.125969
0.130990
0.129986
0.132998
0.141980
0.134002
0.117991
0.123012
0.141980
0.142984
0.122008
0.107001
0.104993
0.096011
0.073975
0.062984
0.073975
0.085969
0.083012
0.072022
0.059972
0.048982
0.042008
0.042008
0.038996
0.031018
0.023989
0.018019
0.014003
0.024993
0.049986
0.058019
0.030014
-0.015007
-0.045021
-0.046025
-0.019024
0.028005
0.064993
0.068005
0.049986
0.042008
0.049986
0.054003
0.045969
0.036987
0.045021
0.063989
0.072022
0.056011
0.036987
0.034979
0.048982
0.058968
0.051994
0.032971
0.018968
0.017015
0.019972
0.015007
0.005969
0.004017
0.008982
0.011994
0.011994
0.017015
0.019972
0.002008
-0.011994
0.015007
0.010990
-0.194978
-0.587000
-0.825995
-0.623987
-0.154030
0.178019
0.233974
0.163012
0.084016
0.016011
-0.018019
-0.010990
-0.001004
-0.006025
-0.005021
0.012999
0.033975
0.050990
0.059972
0.062984
0.069010
0.081004
0.096011
0.107001
0.110014
0.113975
0.121004
0.128981
0.131994
0.130990
0.125969
0.124016
0.126973
0.131994
0.131994
0.128981
0.123012
0.105997
0.084016
0.073975
0.073975
0.073975
0.071018
0.068005
0.062984
0.054003
0.044017
0.032022
0.020976
0.021980
0.032971
0.036987
0.023989
0.008982
0.006973
0.018019
0.029010
0.031018
0.024993
0.018968
0.018968
0.029010
0.046973
0.059972
0.045021
0.002008
-0.034031
-0.042008
-0.035983
-0.025997
0.000000
0.033975
0.045021
0.030014
0.018968
0.025997
0.037992
0.041004
0.038996
0.033975
0.027001
0.023989
0.027001
0.025997
0.022985
0.027001
0.038996
0.045021
0.037992
0.027001
0.018968
0.006973
-0.006025
-0.010990
-0.005021
0.004017
0.011994
0.016011
0.017015
0.017015
0.014003
0.011994
0.025997
0.011994
-0.175006
-0.556986
-0.849983
-0.742982
-0.311017
0.085969
0.233974
0.187001
0.087977
0.024993
0.014003
0.017015
0.010990
0.010990
0.027001
0.042008
0.045021
0.044017
0.050990
0.064993
0.083012
0.101980
0.118995
0.125969
0.123012
0.117991
0.117991
0.123012
0.134002
0.142984
0.143988
0.140976
0.142984
0.145997
0.140976
0.132998
0.125969
0.112022
0.095007
0.089986
0.100976
0.107001
0.097015
0.081004
0.069010
0.054003
0.036987
0.032022
0.037992
0.044017
0.049986
0.064993
0.072022
0.050990
0.018019
0.010990
0.037992
0.064993
0.058968
0.031018
0.022985
0.046973
0.068005
0.059972
0.038996
0.021980
0.001004
-0.021980
-0.021032
0.005021
0.038996
0.067001
0.077991
0.063989
0.043012
0.042008
0.062984
0.078996
0.072970
0.056011
0.048982
0.051994
0.055007
0.047978
0.034979
0.027001
0.031018
0.043012
0.058019
0.068005
0.064993
0.046973
0.027001
0.018019
0.018019
0.019972
0.021980
0.031018
0.037992
0.027001
0.008982
0.023989
0.058968
-0.035983
-0.376010
-0.753024
-0.772996
-0.387000
0.037992
0.215006
0.203012
0.139972
0.067001
0.006973
-0.009986
-0.001004
0.003013
0.005021
0.018968
0.040000
0.056011
0.062984
0.065997
0.070014
0.080000
0.095007
0.112022
0.125021
0.132998
0.132998
0.130990
0.134002
0.143988
0.152970
0.152022
0.141980
0.136011
0.135007
0.131994
0.120000
0.111018
0.110014
0.111018
0.105997
0.097015
0.088982
0.084016
0.078996
0.065997
0.047978
0.044017
0.057015
0.061980
0.045021
0.022985
0.015007
0.018968
0.022985
0.022985
0.024993
0.031018
0.040000
0.038996
0.023989
0.011994
0.019972
0.031018
0.009986
-0.032022
-0.050990
-0.031018
0.001004
0.021980
0.035983
0.037992
0.025997
0.022985
0.036987
0.042008
0.024993
0.009986
0.014003
0.024993
0.029010
0.030014
0.033975
0.037992
0.036987
0.032022
0.025997
0.015007
0.005969
0.006973
0.014003
0.017015
0.009986
-0.002008
-0.010990
-0.006025
0.007978
0.018968
0.020976
0.008982
-0.002008
0.014003
-0.005021
-0.216010
-0.608032
-0.854000
-0.673024
-0.206024
0.161004
0.242008
0.148005
0.047978
0.003013
-0.012999
-0.021980
-0.017015
0.001004
0.012999
0.016011
0.024993
0.045969
0.060976
0.068005
0.081004
0.096011
0.098968
0.091994
0.094003
0.107001
0.116987
0.117991
0.121004
0.125021
0.122008
0.113975
0.112970
0.123012
0.127977
0.118995
0.102984
0.091994
0.085969
0.081004
0.081004
0.083012
0.070014
0.035983
0.005021
0.005021
0.031018
0.056011
0.058968
0.042008
0.032971
0.044017
0.050990
0.036987
0.020976
0.016011
0.020976
0.031018
0.040000
0.032971
0.023989
0.032971
0.046973
0.037992
0.004017
-0.030014
-0.041004
-0.025997
0.002008
0.027001
0.047978
0.069010
0.072970
0.057015
0.046973
0.056011
0.054003
0.030014
0.018968
0.042008
0.068005
0.072970
0.062984
0.045021
0.024993
0.024993
0.045969
0.052998
0.031018
0.010990
0.014003
0.027001
0.042008
0.051994
0.041004
0.018968
0.018019
0.035983
0.035983
0.015007
0.009986
0.046973
0.062984
-0.109009
-0.503987
-0.816009
-0.700026
-0.251994
0.124016
0.245020
0.210990
0.131994
0.045021
-0.006025
-0.002008
0.014003
0.021980
0.035983
0.048982
0.035983
0.022985
0.048982
0.090990
0.099972
0.089986
0.108005
0.144993
0.151018
0.126973
0.123012
0.148005
0.163012
0.150013
0.134002
0.132998
0.138967
0.145997
0.147001
0.132998
0.116987
0.117991
0.125021
0.112970
0.097015
0.102984
0.113975
0.102984
0.069010
0.044017
0.044017
0.058968
0.063989
0.055007
0.048982
0.055007
0.062984
0.057015
0.040000
0.025997
0.021980
0.024993
0.032971
0.040000
0.031018
0.005969
-0.021032
-0.032022
-0.022985
0.001004
0.027001
0.045969
0.052998
0.057015
0.061980
0.059972
0.050990
0.045021
0.045969
0.045021
0.040000
0.035983
0.031018
0.021980
0.018019
0.023989
0.030014
0.022985
0.012999
0.009986
0.012999
0.015007
0.015007
0.011994
0.006973
0.004017
0.003013
0.004017
0.008982
0.007978
-0.008982
-0.016011
0.012999
-0.001004
-0.219023
-0.616009
-0.849983
-0.641002
-0.169986
0.152970
0.198995
0.128981
0.062984
0.010990
-0.018019
-0.012999
-0.002008
-0.005021
-0.008982
0.005021
0.031018
0.047978
0.050990
0.052998
0.062984
0.073975
0.082008
0.090990
0.099972
0.108005
0.114979
0.115983
0.112970
0.114979
0.125021
0.125969
0.113975
0.105997
0.111018
0.112022
0.100976
0.090990
0.087977
0.082008
0.070014
0.056011
0.049986
0.057015
0.068005
0.061980
0.034979
0.009986
0.005021
0.015007
0.018968
0.009986
0.003013
0.010990
0.020976
0.016011
0.003013
0.004017
0.015007
0.018019
0.017015
0.022985
0.035983
0.041004
0.024993
-0.005021
-0.032022
-0.043012
-0.041004
-0.028005
-0.006025
0.022985
0.045969
0.051994
0.037992
0.018019
0.007978
0.012999
0.022985
0.025997
0.017015
0.008982
0.014003
0.028005
0.036987
0.034979
0.028005
0.021980
0.011994
0.000000
-0.006025
-0.005021
-0.006025
-0.006025
-0.002008
0.002008
-0.005021
-0.021980
-0.029010
-0.006025
0.023989
0.025997
0.018019
0.006973
-0.123012
-0.468004
-0.819021
-0.809984
-0.403011
0.045969
0.231017
0.185997
0.090990
0.036987
0.014003
-0.005021
-0.024993
-0.031018
-0.010990
0.018968
0.041004
0.054003
0.063989
0.067001
0.064993
0.070014
0.081004
0.090990
0.102984
0.118995
0.124016
0.112970
0.109009
0.125021
0.143988
0.139972
0.126973
0.124016
0.129986
0.130990
0.123012
0.113975
0.104993
0.088982
0.069010
0.056011
0.058019
0.067001
0.072022
0.072970
0.070014
0.051994
0.021980
0.008982
0.028005
0.050990
0.049986
0.035983
0.035983
0.044017
0.037992
0.023989
0.022985
0.036987
0.034979
0.007978
-0.018019
-0.022985
-0.022985
-0.027001
-0.016011
0.010990
0.037992
0.055007
0.060976
0.064993
0.068005
0.058968
0.033975
0.022985
0.038996
0.052998
0.049986
0.050990
0.060976
0.060976
0.051994
0.045021
0.035983
0.020976
0.011994
0.009986
0.006973
0.006973
0.018019
0.032022
0.035983
0.033975
0.036987
0.033975
0.006973
-0.021032
0.004017
0.042008
-0.084016
-0.449985
-0.785995
-0.741030
-0.338018
0.074979
0.259023
0.236987
0.125021
0.017015
-0.032022
-0.025997
-0.009986
-0.006025
-0.002008
0.011994
0.030014
0.046973
0.059972
0.065997
0.068005
0.074979
0.089986
0.105997
0.109009
0.102984
0.105997
0.125021
0.140976
0.139972
0.125021
0.114979
0.115983
0.125021
0.132998
0.127977
0.114979
0.108005
0.109009
0.107001
0.098019
0.089986
0.083012
0.072022
0.054003
0.038996
0.032022
0.024993
0.015007
0.012999
0.020976
0.023989
0.010990
0.003013
0.012999
0.022985
0.018968
0.016011
0.021980
0.018019
-0.010990
-0.043012
-0.050990
-0.033026
-0.005021
0.018019
0.030014
0.033975
0.035983
0.035983
0.029010
0.018019
0.016011
0.022985
0.020976
0.008982
0.002008
0.005969
0.012999
0.012999
0.006973
0.001004
0.001004
-0.001004
-0.007978
-0.010990
0.001004
0.012999
0.006973
-0.007978
-0.017015
-0.021980
-0.028005
-0.027001
-0.008982
-0.001004
-0.011994
-0.007029
-0.014003
-0.191018
-0.570988
-0.849983
-0.712020
-0.261980
0.115983
0.223988
0.154979
0.057015
-0.003013
-0.024993
-0.027001
-0.023989
-0.021032
-0.012999
0.000000
0.017015
0.032022
0.042008
0.049986
0.057015
0.067001
0.075983
0.083012
0.087977
0.095007
0.102984
0.110014
0.121004
0.130990
0.125969
0.110014
0.102984
0.108005
0.110014
0.104993
0.100976
0.098019
0.085969
0.069010
0.056011
0.049986
0.045969
0.041004
0.032022
0.023989
0.030014
0.038996
0.032022
0.009986
-0.002008
0.005021
0.018968
0.020976
0.005021
-0.016011
-0.022985
-0.006025
0.023989
0.041004
0.029010
0.010990
0.018019
0.037992
0.027001
-0.017015
-0.051994
-0.055007
-0.040000
-0.017015
0.015007
0.045969
0.059972
0.055007
0.048982
0.045021
0.031018
0.012999
0.019972
0.045969
0.052998
0.036987
0.032022
0.045021
0.050990
0.046973
0.046973
0.034979
0.002008
-0.018019
0.001004
0.027001
0.024993
0.014003
0.025997
0.048982
0.045969
0.017015
-0.003013
0.005969
0.019972
0.011994
0.011994
0.022985
-0.084016
-0.430013
-0.808031
-0.799998
-0.347000
0.125021
0.269009
0.183988
0.096011
0.044017
-0.001004
-0.023989
-0.016011
0.003013
0.027001
0.050990
0.054003
0.043012
0.049986
0.080000
0.100976
0.095007
0.081004
0.084016
0.110014
0.140976
0.156987
0.153974
0.149009
0.154979
0.160000
0.149009
0.128981
0.122008
0.129986
0.131994
0.121004
0.112970
0.115983
0.117991
0.110014
0.105997
0.110014
0.100976
0.071018
0.047978
0.048982
0.055007
0.046973
0.040000
0.047978
0.063989
0.068005
0.047978
0.012999
0.000000
0.024993
0.056011
0.060976
0.049986
0.045021
0.042008
0.021980
-0.010990
-0.027001
-0.019024
-0.002008
0.015007
0.035983
0.058968
0.064993
0.055007
0.049986
0.054003
0.052998
0.041004
0.030014
0.028005
0.035983
0.041004
0.037992
0.030014
0.027001
0.029010
0.030014
0.028005
0.027001
0.025997
0.022985
0.018968
0.012999
0.007978
0.008982
0.015007
0.018019
0.010990
-0.007029
-0.025997
-0.021980
0.018019
0.020976
-0.171994
-0.563011
-0.833024
-0.678994
-0.244016
0.091994
0.191018
0.164016
0.094003
0.015007
-0.023989
-0.020028
-0.020028
-0.023989
-0.009986
0.010990
0.021980
0.032022
0.048982
0.059972
0.061980
0.068005
0.082008
0.092998
0.098968
0.103989
0.108005
0.110014
0.114979
0.120000
0.122008
0.121004
0.120000
0.121004
0.118995
0.112970
0.105997
0.099972
0.094003
0.085969
0.077991
0.073975
0.070014
0.059972
0.045021
0.033975
0.032971
0.036987
0.037992
0.032971
0.022985
0.009986
-0.001004
-0.004017
-0.002008
0.004017
0.012999
0.022985
0.031018
0.028005
0.006973
-0.027001
-0.051994
-0.045021
-0.015007
0.008982
0.015007
0.014003
0.015007
0.019972
0.022985
0.018019
0.012999
0.015007
0.022985
0.030014
0.032971
0.032971
0.028005
0.018968
0.005021
-0.007029
-0.006025
0.009986
0.023989
0.021980
0.008982
-0.005021
-0.011994
-0.008982
0.002008
0.005969
-0.001004
-0.008982
-0.007978
-0.008982
-0.016011
-0.005021
-0.003013
-0.149009
-0.499022
-0.808979
-0.756985
-0.359999
0.046973
0.218019
0.180976
0.085969
0.020976
-0.011994
-0.033026
-0.044017
-0.040000
-0.031018
-0.021032
-0.004017
0.019972
0.044017
0.058019
0.059972
0.059972
0.064993
0.071018
0.070014
0.073975
0.092998
0.113975
0.122008
0.122008
0.129986
0.143988
0.140976
0.111018
0.086973
0.095007
0.112970
0.107001
0.088982
0.085969
0.085969
0.072022
0.060976
0.067001
0.062984
0.033975
0.016011
0.033975
0.057015
0.051994
0.024993
0.007978
0.017015
0.037992
0.042008
0.021980
0.008982
0.022985
0.032022
0.003013
-0.035983
-0.042008
-0.022985
-0.008982
0.005021
0.033975
0.058968
0.060976
0.051994
0.047978
0.046973
0.043012
0.041004
0.043012
0.043012
0.038996
0.041004
0.049986
0.046973
0.027001
0.010990
0.018968
0.034979
0.046973
0.051994
0.045969
0.023989
0.002008
0.002008
0.011994
0.011994
0.007978
0.016011
0.022985
0.009986
0.005021
0.032022
0.003013
-0.234030
-0.624991
-0.822982
-0.572997
-0.090990
0.204016
0.212998
0.127977
0.063989
0.006973
-0.031018
-0.021032
0.006973
0.014003
0.009986
0.016011
0.031018
0.047978
0.058019
0.062984
0.072970
0.091994
0.109009
0.109009
0.107001
0.115983
0.126973
0.122008
0.117991
0.129986
0.141980
0.132998
0.117991
0.124016
0.141980
0.145997
0.128981
0.111018
0.111018
0.122008
0.115983
0.086973
0.070014
0.075983
0.073975
0.054003
0.040000
0.045969
0.049986
0.041004
0.031018
0.030014
0.032022
0.034979
0.033975
0.025997
0.018019
0.022985
0.034979
0.023989
-0.011994
-0.043012
-0.049986
-0.037992
-0.014003
0.018019
0.042008
0.044017
0.035983
0.032022
0.032971
0.035983
0.045021
0.054003
0.049986
0.036987
0.028005
0.027001
0.025997
0.018968
0.009986
0.007978
0.015007
0.020976
0.018019
0.008982
0.004017
0.005969
0.006973
0.002008
-0.002008
-0.002008
0.001004
0.003013
-0.002008
-0.010990
0.005021
0.012999
-0.137015
-0.499022
-0.812996
-0.749007
-0.335006
0.072970
0.230013
0.184992
0.086973
0.007978
-0.034979
-0.044017
-0.034979
-0.024993
-0.014003
-0.004017
0.001004
0.005969
0.021980
0.044017
0.058019
0.064993
0.076987
0.094003
0.104993
0.103989
0.099972
0.107001
0.118995
0.120000
0.109009
0.101980
0.108005
0.112022
0.103989
0.100976
0.117991
0.129986
0.108005
0.068005
0.047978
0.051994
0.058019
0.055007
0.046973
0.034979
0.027001
0.027001
0.027001
0.018968
0.010990
0.010990
0.012999
0.010990
0.008982
0.017015
0.024993
0.018968
0.006973
0.006973
0.012999
0.004017
-0.025997
-0.052998
-0.058019
-0.045021
-0.023989
-0.001004
0.020976
0.029010
0.023989
0.018019
0.018968
0.019972
0.012999
0.008982
0.014003
0.019972
0.015007
0.008982
0.012999
0.021980
0.017015
-0.001004
-0.014003
-0.014003
-0.008982
-0.004017
0.002008
0.005969
0.001004
-0.019024
-0.034979
-0.029010
-0.001004
0.022985
0.019972
-0.001004
0.001004
-0.017015
-0.215006
-0.604015
-0.863986
-0.698017
-0.249985
0.098019
0.193974
0.151018
0.076987
0.005021
-0.036987
-0.037992
-0.031018
-0.030014
-0.011994
0.025997
0.050990
0.045021
0.034979
0.049986
0.075983
0.088982
0.089986
0.090990
0.096011
0.101980
0.110014
0.121004
0.132998
0.136011
0.127977
0.113975
0.104993
0.103989
0.114979
0.129986
0.129986
0.110014
0.085969
0.073975
0.070014
0.070014
0.067001
0.051994
0.034979
0.032971
0.046973
0.057015
0.050990
0.032022
0.019972
0.023989
0.029010
0.021980
0.010990
0.009986
0.012999
0.017015
0.031018
0.043012
0.024993
-0.020028
-0.054003
-0.046025
-0.010990
0.016011
0.027001
0.038996
0.058968
0.072022
0.064993
0.047978
0.032971
0.027001
0.032022
0.044017
0.050990
0.042008
0.032022
0.036987
0.045969
0.043012
0.034979
0.040000
0.050990
0.045021
0.022985
0.005021
0.003013
0.006973
0.007978
0.001004
-0.008982
-0.006025
0.016011
0.029010
0.018968
0.020976
-0.002008
-0.201004
-0.571993
-0.794028
-0.603011
-0.155983
0.176011
0.239999
0.145997
0.043012
-0.007029
-0.010990
-0.006025
-0.010990
-0.016011
-0.007978
0.005969
0.016011
0.027001
0.046973
0.070014
0.081004
0.078996
0.074979
0.076987
0.089986
0.108005
0.122008
0.125969
0.124016
0.121004
0.121004
0.130990
0.144993
0.150013
0.131994
0.104993
0.087977
0.086973
0.088982
0.085021
0.071018
0.056011
0.051994
0.060976
0.063989
0.050990
0.035983
0.030014
0.024993
0.017015
0.016011
0.024993
0.030014
0.025997
0.021980
0.017015
0.006973
0.002008
0.016011
0.034979
0.024993
-0.015007
-0.056011
-0.071018
-0.051994
-0.012999
0.017015
0.022985
0.015007
0.014003
0.018019
0.018968
0.018968
0.022985
0.023989
0.018019
0.010990
0.006973
0.003013
-0.002008
-0.003013
0.001004
-0.001004
-0.010990
-0.014003
-0.002008
0.005969
-0.006025
-0.021032
-0.021032
-0.011994
-0.008982
-0.014003
-0.016011
-0.017015
-0.021980
-0.036987
-0.046025
-0.020028
-0.007029
-0.164016
-0.530989
-0.834028
-0.745995
-0.317991
0.085969
0.223988
0.162008
0.063989
0.002008
-0.029010
-0.042008
-0.042008
-0.037992
-0.034031
-0.025997
-0.008982
0.015007
0.037992
0.054003
0.060976
0.063989
0.067001
0.064993
0.062984
0.064993
0.072970
0.078996
0.081004
0.086973
0.092998
0.094003
0.095007
0.102984
0.108005
0.097015
0.074979
0.058968
0.050990
0.055007
0.070014
0.080000
0.063989
0.032971
0.014003
0.015007
0.019972
0.011994
0.002008
0.007978
0.019972
0.018019
0.009986
0.016011
0.027001
0.018968
-0.006025
-0.024993
-0.020028
0.002008
0.016011
0.016011
0.018968
0.027001
0.012999
-0.033026
-0.073026
-0.067001
-0.019024
0.024993
0.032971
0.012999
-0.006025
-0.008982
0.005021
0.032971
0.056011
0.051994
0.030014
0.018968
0.025997
0.022985
0.005021
-0.005021
0.005021
0.018019
0.016011
0.004017
-0.003013
0.001004
0.012999
0.019972
0.012999
-0.002008
-0.015007
-0.016011
-0.003013
0.008982
-0.001004
-0.017015
0.005021
0.015007
-0.143988
-0.502983
-0.796985
-0.712020
-0.292998
0.098968
0.217015
0.138967
0.044017
-0.007029
-0.029010
-0.034031
-0.022985
-0.004017
0.014003
0.019972
0.018968
0.022985
0.036987
0.048982
0.055007
0.061980
0.070014
0.074979
0.085021
0.101980
0.113975
0.112022
0.109009
0.113975
0.118995
0.115983
0.109009
0.104993
0.103989
0.105997
0.108005
0.105997
0.097015
0.085021
0.073975
0.058968
0.048982
0.051994
0.059972
0.051994
0.028005
0.012999
0.015007
0.018019
0.012999
0.005021
-0.001004
-0.007978
-0.008982
0.006973
0.028005
0.032022
0.008982
-0.028005
-0.059024
-0.069010
-0.058019
-0.034031
-0.009986
0.008982
0.018968
0.020976
0.016011
0.011994
0.014003
0.018019
0.018019
0.014003
0.008982
0.003013
-0.002008
0.001004
0.010990
0.014003
-0.001004
-0.017015
-0.019024
-0.015007
-0.018019
-0.023989
-0.029010
-0.034979
-0.038996
-0.035983
-0.034031
-0.034979
-0.037992
-0.047029
-0.049986
-0.019024
-0.006025
-0.177015
-0.555982
-0.846023
-0.728980
-0.292998
0.084016
0.192022
0.126973
0.038996
-0.022985
-0.056011
-0.061032
-0.058019
-0.059024
-0.055007
-0.038996
-0.020028
-0.005021
0.002008
0.005969
0.018968
0.042008
0.061980
0.069010
0.067001
0.067001
0.073975
0.077991
0.076987
0.073975
0.077991
0.085021
0.087977
0.085969
0.077991
0.067001
0.062984
0.070014
0.069010
0.051994
0.032971
0.028005
0.035983
0.037992
0.023989
0.004017
-0.008982
-0.010990
-0.014003
-0.020028
-0.021032
-0.010990
-0.005021
-0.008982
-0.018019
-0.019024
-0.018019
-0.018019
-0.015007
-0.011994
-0.023989
-0.056011
-0.087977
-0.095007
-0.074030
-0.041004
-0.012999
0.001004
0.005969
0.005969
0.002008
-0.008982
-0.019024
-0.017015
-0.007978
-0.003013
-0.007978
-0.015007
-0.017015
-0.015007
-0.009986
-0.007029
-0.009986
-0.017015
-0.024993
-0.033026
-0.041004
-0.049986
-0.048982
-0.035983
-0.030014
-0.043012
-0.048982
-0.031018
-0.016011
-0.023989
-0.034979
-0.021980
0.000000
-0.084016
-0.384992
-0.761002
-0.861029
-0.554977
-0.118995
0.131994
0.156987
0.086973
0.021980
-0.017015
-0.044017
-0.058019
-0.048982
-0.034031
-0.034031
-0.031018
-0.007029
0.018019
0.023989
0.023989
0.032022
0.050990
0.072022
0.080000
0.074979
0.071018
0.072970
0.084016
0.101980
0.112022
0.098968
0.074979
0.067001
0.074979
0.083012
0.085969
0.088982
0.082008
0.061980
0.044017
0.033975
0.022985
0.012999
0.016011
0.030014
0.035983
0.021980
-0.002008
-0.019024
-0.020028
-0.011994
-0.017015
-0.030014
-0.028005
-0.010990
-0.003013
0.000000
0.016011
0.017015
-0.031018
-0.088982
-0.100028
-0.072022
-0.045021
-0.022985
0.003013
0.022985
0.025997
0.025997
0.027001
0.016011
-0.002008
-0.005021
0.010990
0.027001
0.023989
0.011994
0.004017
0.001004
-0.006025
-0.020028
-0.025997
-0.014003
0.003013
-0.001004
-0.027001
-0.045021
-0.036987
-0.016011
-0.001004
-0.007978
-0.029010
-0.043012
-0.044017
-0.028005
0.004017
-0.022985
-0.239999
-0.615005
-0.841002
-0.659022
-0.210990
0.129986
0.199999
0.120000
0.032971
-0.031018
-0.070014
-0.072022
-0.052998
-0.043012
-0.041004
-0.030014
-0.009986
0.006973
0.016011
0.018019
0.023989
0.038996
0.056011
0.064993
0.065997
0.064993
0.067001
0.076987
0.091994
0.098019
0.085969
0.072970
0.074979
0.087977
0.094003
0.084016
0.067001
0.058019
0.057015
0.049986
0.031018
0.011994
0.007978
0.015007
0.020976
0.017015
0.004017
-0.009986
-0.018019
-0.021032
-0.025997
-0.036987
-0.043012
-0.036987
-0.025997
-0.025997
-0.031018
-0.027001
-0.024993
-0.036987
-0.048982
-0.040000
-0.019024
-0.009986
-0.012999
-0.019024
-0.029010
-0.048982
-0.074979
-0.099023
-0.107001
-0.087977
-0.048982
-0.022985
-0.027001
-0.038996
-0.038996
-0.033026
-0.028005
-0.020028
-0.015007
-0.021980
-0.035983
-0.042008
-0.040000
-0.041004
-0.041004
-0.040000
-0.044017
-0.047978
-0.038996
-0.030014
-0.035983
-0.048982
-0.050990
-0.048982
-0.050990
-0.050990
-0.047029
-0.049986
-0.060028
-0.058019
-0.057015
-0.061032
-0.045021
-0.041004
-0.194978
-0.555982
-0.866999
-0.801002
-0.384992
0.022985
0.164016
0.095007
-0.003013
-0.050990
-0.069010
-0.074030
-0.074979
-0.081004
-0.081004
-0.059024
-0.023989
-0.004017
0.000000
0.002008
0.004017
0.008982
0.017015
0.023989
0.028005
0.037992
0.055007
0.069010
0.075983
0.081004
0.077991
0.061980
0.045969
0.047978
0.062984
0.075983
0.078996
0.075983
0.068005
0.056011
0.038996
0.021980
0.010990
0.007978
0.005969
-0.004017
-0.020028
-0.029010
-0.025997
-0.021980
-0.019024
-0.017015
-0.017015
-0.018019
-0.017015
-0.018019
-0.025997
-0.041004
-0.063989
-0.085021
-0.072022
-0.025997
0.005969
-0.003013
-0.020028
-0.014003
-0.003013
-0.020028
-0.065997
-0.107001
-0.108005
-0.072022
-0.035983
-0.020028
-0.007978
0.005021
-0.002008
-0.028005
-0.036987
-0.015007
0.002008
-0.011994
-0.024993
-0.014003
-0.002008
-0.011994
-0.021980
-0.012999
-0.002008
-0.006025
-0.017015
-0.022985
-0.025997
-0.031018
-0.037992
-0.046025
-0.051994
-0.050990
-0.043012
-0.031018
-0.024993
-0.034031
-0.044017
-0.022985
-0.006025
-0.139023
-0.496010
-0.843010
-0.811992
-0.384992
0.045021
0.188005
0.124016
0.040000
-0.018019
-0.061980
-0.076987
-0.067001
-0.047978
-0.024993
-0.007978
-0.009986
-0.021032
-0.010990
0.018968
0.042008
0.046973
0.046973
0.054003
0.059972
0.056011
0.054003
0.065997
0.087977
0.099972
0.097015
0.090990
0.085021
0.076987
0.067001
0.059972
0.052998
0.042008
0.035983
0.043012
0.050990
0.041004
0.016011
-0.002008
-0.002008
0.005021
0.001004
-0.017015
-0.037992
-0.045021
-0.027001
-0.008982
-0.012999
-0.033026
-0.037992
-0.023989
-0.009986
-0.017015
-0.047029
-0.078996
-0.097015
-0.103989
-0.099023
-0.071018
-0.032022
-0.017015
-0.027001
-0.027001
-0.015007
-0.014003
-0.023989
-0.027001
-0.020028
-0.018019
-0.023989
-0.032022
-0.038996
-0.041004
-0.034979
-0.030014
-0.037992
-0.051994
-0.054003
-0.047029
-0.045021
-0.047978
-0.049986
-0.056011
-0.068005
-0.071018
-0.062984
-0.059024
-0.064993
-0.069010
-0.067001
-0.051994
-0.034031
-0.127029
-0.454001
-0.841002
-0.882006
-0.492997
-0.046025
0.139972
0.120000
0.056011
-0.008982
-0.068005
-0.095007
-0.090990
-0.080000
-0.073026
-0.062984
-0.047029
-0.028005
-0.014003
-0.008982
-0.004017
0.004017
0.010990
0.014003
0.012999
0.014003
0.029010
0.051994
0.067001
0.064993
0.055007
0.049986
0.055007
0.068005
0.074979
0.062984
0.043012
0.036987
0.037992
0.022985
0.001004
-0.006025
0.002008
0.002008
-0.011994
-0.029010
-0.035983
-0.034979
-0.033026
-0.034031
-0.040000
-0.045021
-0.045021
-0.038996
-0.034979
-0.040000
-0.050990
-0.052998
-0.046025
-0.045021
-0.051994
-0.049986
-0.047029
-0.065997
-0.100028
-0.118995
-0.111018
-0.089986
-0.065997
-0.035983
-0.008982
-0.001004
-0.021980
-0.047029
-0.044017
-0.014003
0.008982
0.005021
-0.018019
-0.035983
-0.037992
-0.032022
-0.034979
-0.044017
-0.040000
-0.024993
-0.017015
-0.025997
-0.041004
-0.050990
-0.050990
-0.045021
-0.045021
-0.054003
-0.061032
-0.052998
-0.034979
-0.027001
-0.046025
-0.068005
-0.045021
-0.021032
-0.167977
-0.548004
-0.887027
-0.825995
-0.382983
0.051994
0.197991
0.127977
0.032971
-0.020028
-0.056011
-0.080000
-0.085021
-0.078996
-0.068005
-0.046025
-0.010990
0.018968
0.029010
0.023989
0.015007
0.007978
0.010990
0.031018
0.058019
0.067001
0.058019
0.055007
0.069010
0.081004
0.081004
0.081004
0.090990
0.090990
0.072970
0.058019
0.059972
0.060976
0.043012
0.022985
0.025997
0.045969
0.045969
0.014003
-0.017015
-0.016011
0.005021
0.008982
-0.008982
-0.024993
-0.025997
-0.022985
-0.029010
-0.041004
-0.042008
-0.025997
-0.007978
-0.007978
-0.030014
-0.056011
-0.073026
-0.084016
-0.094003
-0.084016
-0.042008
0.002008
0.011994
0.000000
-0.006025
-0.005021
-0.006025
-0.011994
-0.018019
-0.021980
-0.023989
-0.021032
-0.007029
0.008982
0.005969
-0.016011
-0.029010
-0.028005
-0.031018
-0.045021
-0.048982
-0.042008
-0.040000
-0.043012
-0.041004
-0.040000
-0.049986
-0.060028
-0.050990
-0.032022
-0.035983
-0.054003
-0.042008
-0.057015
-0.264992
-0.655005
-0.888979
-0.690988
-0.235983
0.098968
0.185997
0.136011
0.042008
-0.046025
-0.082008
-0.074979
-0.069010
-0.074979
-0.070014
-0.051994
-0.033026
-0.018019
-0.007029
0.001004
0.010990
0.027001
0.038996
0.045969
0.056011
0.068005
0.072970
0.071018
0.073975
0.084016
0.087977
0.077991
0.059972
0.050990
0.055007
0.063989
0.068005
0.063989
0.051994
0.033975
0.019972
0.012999
0.011994
0.015007
0.010990
-0.007029
-0.022985
-0.021980
-0.012999
-0.012999
-0.024993
-0.035983
-0.034979
-0.024993
-0.023989
-0.038996
-0.054003
-0.057015
-0.056011
-0.052998
-0.043012
-0.028005
-0.021032
-0.021032
-0.024993
-0.034031
-0.036987
-0.028005
-0.023989
-0.044017
-0.074979
-0.091994
-0.096011
-0.088982
-0.063989
-0.032022
-0.021032
-0.029010
-0.035983
-0.031018
-0.024993
-0.025997
-0.031018
-0.036987
-0.038996
-0.034979
-0.024993
-0.015007
-0.012999
-0.021032
-0.032022
-0.035983
-0.034031
-0.036987
-0.047978
-0.057015
-0.057015
-0.048982
-0.041004
-0.036987
-0.041004
-0.046025
-0.042008
-0.035983
-0.044017
-0.051994
-0.034979
-0.081004
-0.352021
-0.774000
-0.953024
-0.659022
-0.168981
0.113975
0.139972
0.076987
0.010990
-0.049986
-0.086025
-0.089986
-0.074979
-0.050990
-0.034031
-0.037992
-0.038996
-0.016011
0.008982
0.018019
0.024993
0.038996
0.044017
0.035983
0.045969
0.080000
0.105997
0.101980
0.078996
0.069010
0.081004
0.098019
0.091994
0.068005
0.052998
0.059972
0.067001
0.058968
0.047978
0.047978
0.047978
0.033975
0.015007
0.005969
0.002008
-0.003013
-0.001004
0.005021
-0.005021
-0.033026
-0.049986
-0.037992
-0.016011
-0.010990
-0.018019
-0.022985
-0.024993
-0.023989
-0.016011
-0.007029
-0.012999
-0.030014
-0.033026
-0.017015
-0.001004
0.006973
0.005969
-0.012999
-0.048982
-0.073026
-0.073026
-0.065997
-0.061032
-0.036987
0.006973
0.032971
0.016011
-0.015007
-0.023989
-0.008982
0.009986
0.014003
0.001004
-0.012999
-0.012999
0.000000
0.012999
0.010990
-0.008982
-0.029010
-0.036987
-0.034031
-0.025997
-0.008982
0.007978
0.003013
-0.021032
-0.032022
-0.021980
-0.020028
-0.040000
-0.049986
-0.031018
-0.007978
-0.003013
-0.028005
-0.174002
-0.501031
-0.804014
-0.765019
-0.385996
-0.001004
0.167977
0.167977
0.098968
0.014003
-0.042008
-0.055007
-0.057015
-0.057015
-0.038996
-0.018019
-0.014003
-0.012999
0.005969
0.027001
0.035983
0.043012
0.058968
0.070014
0.072022
0.071018
0.073975
0.080000
0.089986
0.098019
0.096011
0.087977
0.085969
0.094003
0.098968
0.094003
0.085021
0.077991
0.070014
0.056011
0.045021
0.042008
0.043012
0.037992
0.025997
0.011994
0.006973
0.008982
0.005021
-0.004017
-0.009986
-0.009986
-0.010990
-0.014003
-0.020028
-0.027001
-0.030014
-0.028005
-0.023989
-0.019024
-0.016011
-0.019024
-0.024993
-0.018019
-0.003013
-0.005021
-0.033026
-0.065997
-0.082008
-0.085021
-0.074979
-0.047978
-0.011994
0.009986
0.011994
0.002008
-0.009986
-0.020028
-0.024993
-0.023989
-0.024993
-0.027001
-0.021032
-0.009986
-0.010990
-0.023989
-0.032022
-0.031018
-0.029010
-0.034031
-0.037992
-0.036987
-0.032022
-0.030014
-0.034031
-0.042008
-0.044017
-0.037992
-0.037992
-0.051994
-0.058019
-0.045021
-0.034979
-0.034031
-0.019024
-0.058019
-0.297014
-0.700026
-0.929983
-0.711016
-0.216010
0.142984
0.199999
0.103989
0.012999
-0.033026
-0.044017
-0.041004
-0.045021
-0.049986
-0.041004
-0.022985
-0.010990
0.002008
0.019972
0.033975
0.042008
0.047978
0.056011
0.067001
0.074979
0.071018
0.062984
0.064993
0.077991
0.087977
0.085969
0.080000
0.082008
0.088982
0.086973
0.073975
0.060976
0.055007
0.049986
0.038996
0.027001
0.025997
0.032971
0.035983
0.027001
0.010990
-0.003013
-0.014003
-0.024993
-0.034031
-0.030014
-0.017015
-0.005021
-0.005021
-0.016011
-0.030014
-0.034031
-0.023989
-0.012999
-0.010990
-0.012999
-0.015007
-0.012999
-0.002008
0.004017
-0.008982
-0.021032
-0.005021
0.018019
0.005021
-0.035983
-0.061980
-0.060028
-0.049986
-0.037992
-0.015007
0.012999
0.027001
0.023989
0.009986
-0.005021
-0.008982
0.003013
0.016011
0.015007
0.007978
0.005021
-0.005021
-0.021980
-0.023989
-0.007978
0.006973
0.011994
0.011994
0.007978
-0.002008
-0.011994
-0.009986
-0.002008
0.001004
-0.007978
-0.016011
-0.011994
-0.003013
-0.007978
-0.017015
0.000000
0.010990
-0.134002
-0.511017
-0.866999
-0.816009
-0.364016
0.071018
0.212998
0.161004
0.085021
0.018019
-0.031018
-0.043012
-0.032022
-0.021032
-0.006025
0.014003
0.027001
0.019972
0.005021
0.016011
0.055007
0.080000
0.071018
0.068005
0.098019
0.125021
0.120000
0.108005
0.110014
0.112970
0.105997
0.102984
0.103989
0.100976
0.102984
0.112022
0.110014
0.088982
0.069010
0.060976
0.061980
0.063989
0.058968
0.048982
0.043012
0.037992
0.032971
0.032022
0.033975
0.024993
0.005021
-0.009986
-0.020028
-0.021980
-0.012999
0.004017
0.008982
0.000000
-0.002008
0.005021
0.001004
-0.020028
-0.040000
-0.047029
-0.047029
-0.037992
-0.018019
0.002008
0.009986
0.015007
0.025997
0.031018
0.020976
0.012999
0.015007
0.018968
0.012999
0.005021
0.002008
-0.002008
-0.010990
-0.025997
-0.036987
-0.031018
-0.012999
-0.002008
-0.010990
-0.028005
-0.037992
-0.037992
-0.031018
-0.021980
-0.019024
-0.027001
-0.033026
-0.030014
-0.033026
-0.037992
-0.019024
-0.037992
-0.249985
-0.639998
-0.887027
-0.703987
-0.235983
0.121004
0.193974
0.113975
0.030014
-0.022985
-0.048982
-0.049986
-0.051994
-0.059024
-0.047978
-0.019024
0.003013
0.010990
0.021980
0.041004
0.056011
0.058968
0.058019
0.059972
0.062984
0.062984
0.071018
0.087977
0.097015
0.091994
0.085021
0.086973
0.088982
0.085021
0.081004
0.078996
0.069010
0.055007
0.050990
0.055007
0.047978
0.027001
0.016011
0.022985
0.029010
0.016011
-0.009986
-0.022985
-0.014003
0.001004
-0.002008
-0.019024
-0.028005
-0.021980
-0.016011
-0.021980
-0.031018
-0.034031
-0.030014
-0.021980
-0.016011
-0.023989
-0.048982
-0.073026
-0.081004
-0.072022
-0.048982
-0.020028
0.001004
0.006973
0.009986
0.016011
0.017015
0.005969
-0.008982
-0.016011
-0.010990
-0.002008
-0.001004
-0.004017
-0.008982
-0.014003
-0.018019
-0.017015
-0.011994
-0.005021
-0.005021
-0.019024
-0.037992
-0.037992
-0.020028
-0.022985
-0.062984
-0.088982
-0.056011
0.003013
0.011994
-0.037992
-0.060028
-0.024993
-0.098019
-0.443011
-0.852996
-0.878993
-0.446024
0.021980
0.187001
0.134002
0.057015
0.002008
-0.034031
-0.036987
-0.021980
-0.021980
-0.037992
-0.045021
-0.017015
0.030014
0.050990
0.029010
0.012999
0.041004
0.083012
0.092998
0.083012
0.086973
0.101980
0.102984
0.090990
0.080000
0.074979
0.072022
0.074979
0.090990
0.111018
0.115983
0.096011
0.068005
0.057015
0.064993
0.073975
0.067001
0.045021
0.023989
0.020976
0.028005
0.021980
-0.001004
-0.018019
-0.012999
0.000000
0.005021
0.004017
0.001004
0.002008
0.007978
0.012999
0.002008
-0.027001
-0.054003
-0.062984
-0.057015
-0.037992
-0.009986
0.007978
0.004017
-0.006025
0.001004
0.021980
0.038996
0.042008
0.032971
0.024993
0.032971
0.043012
0.036987
0.020976
0.016011
0.018968
0.020976
0.018019
0.007978
-0.010990
-0.023989
-0.011994
0.008982
0.014003
0.005969
-0.006025
-0.025997
-0.038996
-0.019024
0.008982
0.001004
-0.017015
-0.012999
-0.090990
-0.377014
-0.736009
-0.820025
-0.497014
-0.041004
0.209985
0.205020
0.103989
0.022985
-0.020028
-0.034979
-0.036987
-0.035983
-0.033026
-0.020028
-0.007029
0.002008
0.009986
0.025997
0.044017
0.056011
0.062984
0.076987
0.090990
0.088982
0.077991
0.085021
0.104993
0.112970
0.101980
0.096011
0.102984
0.107001
0.100976
0.098019
0.098019
0.088982
0.072970
0.064993
0.063989
0.057015
0.043012
0.033975
0.032022
0.029010
0.022985
0.018968
0.012999
-0.001004
-0.015007
-0.020028
-0.019024
-0.018019
-0.017015
-0.012999
-0.009986
-0.007978
-0.003013
-0.003013
-0.015007
-0.032022
-0.035983
-0.022985
-0.006025
-0.004017
-0.012999
-0.020028
-0.021032
-0.016011
-0.006025
0.002008
-0.010990
-0.044017
-0.076987
-0.088982
-0.080000
-0.062984
-0.043012
-0.022985
-0.010990
-0.015007
-0.028005
-0.028005
-0.015007
-0.008982
-0.015007
-0.022985
-0.025997
-0.022985
-0.010990
-0.002008
-0.009986
-0.022985
-0.028005
-0.028005
-0.033026
-0.034979
-0.027001
-0.020028
-0.022985
-0.029010
-0.032022
-0.034979
-0.037992
-0.042008
-0.043012
-0.045021
-0.048982
-0.036987
-0.022985
-0.130990
-0.460026
-0.812996
-0.835032
-0.477990
-0.060028
0.151018
0.156987
0.074979
-0.007978
-0.049986
-0.052998
-0.047029
-0.048982
-0.048982
-0.037992
-0.022985
-0.014003
-0.007978
0.005021
0.024993
0.042008
0.050990
0.056011
0.058968
0.059972
0.060976
0.067001
0.073975
0.073975
0.072022
0.077991
0.087977
0.088982
0.081004
0.070014
0.048982
0.024993
0.024993
0.050990
0.067001
0.051994
0.024993
0.014003
0.017015
0.018968
0.012999
-0.001004
-0.019024
-0.036987
-0.044017
-0.025997
0.007978
0.019972
-0.007029
-0.038996
-0.034031
-0.008982
-0.004017
-0.020028
-0.023989
-0.009986
0.005021
0.005969
0.000000
-0.004017
-0.007029
-0.016011
-0.030014
-0.027001
0.003013
0.032022
0.024993
-0.021980
-0.068005
-0.083012
-0.073026
-0.059024
-0.037992
-0.005021
0.022985
0.020976
-0.004017
-0.021032
-0.012999
0.005969
0.012999
-0.002008
-0.019024
-0.011994
0.014003
0.024993
0.009986
-0.007029
-0.004017
-0.003013
-0.022985
-0.045021
-0.033026
-0.004017
-0.001004
-0.025997
-0.035983
-0.017015
0.002008
0.003013
-0.005021
-0.020028
-0.034979
-0.019024
-0.017015
-0.195983
-0.594029
-0.892996
-0.742982
-0.265996
0.115983
0.218019
0.161004
0.069010
-0.014003
-0.048982
-0.041004
-0.038996
-0.051994
-0.050990
-0.024993
0.004017
0.019972
0.029010
0.047978
0.067001
0.068005
0.058968
0.063989
0.081004
0.088982
0.085969
0.085021
0.094003
0.102984
0.101980
0.101980
0.117991
0.132998
0.121004
0.094003
0.075983
0.070014
0.065997
0.062984
0.056011
0.040000
0.025997
0.023989
0.028005
0.027001
0.018019
0.002008
-0.012999
-0.012999
-0.001004
0.005969
-0.003013
-0.020028
-0.028005
-0.029010
-0.030014
-0.032022
-0.028005
-0.015007
0.002008
0.006973
-0.012999
-0.052998
-0.088982
-0.100028
-0.085021
-0.049986
-0.010990
0.011994
0.005021
-0.016011
-0.022985
-0.011994
-0.005021
-0.016011
-0.031018
-0.025997
-0.003013
0.008982
-0.004017
-0.024993
-0.033026
-0.024993
-0.020028
-0.030014
-0.044017
-0.047029
-0.043012
-0.043012
-0.046025
-0.047978
-0.048982
-0.054003
-0.060028
-0.064993
-0.061032
-0.045021
-0.042008
-0.054003
-0.045021
-0.065997
-0.287977
-0.689984
-0.901978
-0.661030
-0.201004
0.092998
0.151018
0.110014
0.036987
-0.044017
-0.086025
-0.082008
-0.069010
-0.063989
-0.058019
-0.047978
-0.033026
-0.008982
0.017015
0.030014
0.025997
0.019972
0.027001
0.041004
0.051994
0.056011
0.058968
0.067001
0.077991
0.084016
0.085021
0.080000
0.070014
0.061980
0.062984
0.063989
0.056011
0.042008
0.035983
0.033975
0.029010
0.021980
0.018019
0.016011
0.006973
-0.007978
-0.020028
-0.023989
-0.022985
-0.020028
-0.020028
-0.023989
-0.033026
-0.044017
-0.045021
-0.035983
-0.029010
-0.033026
-0.036987
-0.031018
-0.021980
-0.027001
-0.041004
-0.040000
-0.023989
-0.015007
-0.021980
-0.033026
-0.036987
-0.036987
-0.037992
-0.038996
-0.038996
-0.033026
-0.019024
-0.015007
-0.025997
-0.036987
-0.040000
-0.046025
-0.056011
-0.052998
-0.038996
-0.035983
-0.045021
-0.043012
-0.023989
-0.024993
-0.071018
-0.114030
-0.094003
-0.030014
0.003013
-0.008982
-0.012999
0.014003
0.030014
0.009986
-0.018019
-0.034031
-0.032022
-0.018019
-0.002008
0.006973
0.008982
0.002008
-0.012999
-0.017015
0.000000
0.014003
0.002008
-0.021980
-0.029010
-0.017015
-0.007978
-0.017015
-0.034979
-0.044017
-0.034979
-0.023989
-0.028005
-0.038996
-0.033026
-0.016011
-0.009986
-0.007978
-0.034031
-0.215006
-0.580026
-0.855004
-0.728031
-0.288981
0.082008
0.191018
0.136011
0.054003
-0.006025
-0.041004
-0.051994
-0.042008
-0.031018
-0.032022
-0.031018
-0.007029
0.022985
0.035983
0.036987
0.045021
0.058019
0.067001
0.068005
0.069010
0.078996
0.098968
0.107001
0.094003
0.083012
0.096011
0.114979
0.117991
0.109009
0.099972
0.091994
0.085021
0.078996
0.070014
0.055007
0.045021
0.046973
0.047978
0.036987
0.019972
0.006973
0.006973
0.012999
0.008982
-0.007029
-0.022985
-0.021032
-0.007978
-0.002008
-0.011994
-0.023989
-0.021980
-0.006025
0.004017
-0.001004
-0.009986
-0.007978
0.003013
0.008982
0.001004
-0.011994
-0.019024
-0.021980
-0.023989
-0.024993
-0.033026
-0.052998
-0.074030
-0.073026
-0.044017
-0.010990
0.001004
-0.004017
-0.004017
0.005969
0.005969
-0.003013
-0.005021
-0.002008
-0.016011
-0.044017
-0.054003
-0.036987
-0.020028
-0.020028
-0.021032
-0.010990
-0.002008
-0.009986
-0.023989
-0.027001
-0.021980
-0.024993
-0.032022
-0.033026
-0.031018
-0.037992
-0.047978
-0.048982
-0.048982
-0.052998
-0.045021
-0.031018
-0.029010
-0.024993
-0.037992
-0.207977
-0.587000
-0.884014
-0.762006
-0.319999
0.048982
0.170990
0.145997
0.072022
-0.014003
-0.065997
-0.070014
-0.061980
-0.057015
-0.044017
-0.027001
-0.016011
-0.008982
0.003013
0.022985
0.041004
0.049986
0.050990
0.048982
0.049986
0.058968
0.072022
0.077991
0.072022
0.068005
0.076987
0.090990
0.092998
0.082008
0.070014
0.063989
0.059972
0.058968
0.062984
0.067001
0.059972
0.041004
0.019972
0.003013
-0.008982
-0.008982
0.000000
-0.001004
-0.010990
-0.016011
-0.009986
-0.007978
-0.012999
-0.012999
-0.014003
-0.028005
-0.041004
-0.037992
-0.028005
-0.027001
-0.022985
-0.009986
-0.002008
-0.012999
-0.027001
-0.023989
-0.010990
-0.008982
-0.038996
-0.087977
-0.117991
-0.101032
-0.061032
-0.035983
-0.027001
-0.016011
-0.002008
-0.001004
-0.010990
-0.020028
-0.021032
-0.015007
-0.011994
-0.027001
-0.052998
-0.056011
-0.024993
0.005021
0.007978
0.000000
-0.002008
-0.009986
-0.029010
-0.040000
-0.032022
-0.022985
-0.027001
-0.034979
-0.034031
-0.024993
-0.022985
-0.030014
-0.029010
-0.006025
0.012999
-0.002008
-0.024993
-0.010990
-0.030014
-0.243012
-0.648980
-0.927026
-0.761002
-0.261980
0.135007
0.201004
0.091994
0.019972
0.002008
-0.023989
-0.060028
-0.076987
-0.063989
-0.027001
0.009986
0.021980
0.017015
0.022985
0.044017
0.060976
0.067001
0.061980
0.048982
0.043012
0.057015
0.086973
0.112970
0.120000
0.104993
0.085021
0.088982
0.112970
0.123012
0.103989
0.076987
0.067001
0.073975
0.078996
0.072022
0.057015
0.043012
0.031018
0.019972
0.016011
0.021980
0.022985
0.007978
-0.003013
0.005021
0.017015
0.015007
0.006973
0.002008
-0.005021
-0.009986
-0.008982
-0.008982
-0.017015
-0.016011
-0.002008
0.002008
-0.009986
-0.017015
-0.015007
-0.033026
-0.075983
-0.097015
-0.061980
-0.006025
0.018019
0.011994
0.006973
0.015007
0.021980
0.021980
0.018968
0.016011
0.012999
0.012999
0.016011
0.014003
0.006973
0.005969
0.007978
0.004017
-0.007978
-0.019024
-0.021032
-0.019024
-0.021032
-0.023989
-0.022985
-0.021032
-0.023989
-0.024993
-0.021980
-0.027001
-0.035983
-0.031018
-0.021980
-0.036987
-0.049986
-0.023989
-0.055007
-0.302984
-0.698017
-0.879997
-0.622983
-0.149009
0.164016
0.208981
0.127977
0.041004
-0.030014
-0.067001
-0.064993
-0.051994
-0.043012
-0.027001
-0.007029
0.001004
0.000000
0.008982
0.032971
0.055007
0.062984
0.064993
0.062984
0.058019
0.060976
0.077991
0.095007
0.096011
0.089986
0.090990
0.096011
0.098968
0.098968
0.092998
0.077991
0.060976
0.056011
0.058968
0.060976
0.058968
0.050990
0.032971
0.010990
-0.002008
-0.004017
-0.003013
-0.003013
-0.002008
-0.002008
-0.007978
-0.017015
-0.023989
-0.027001
-0.028005
-0.027001
-0.027001
-0.030014
-0.031018
-0.021032
-0.008982
-0.007978
-0.020028
-0.033026
-0.049986
-0.076987
-0.095007
-0.076987
-0.042008
-0.024993
-0.020028
0.002008
0.023989
0.011994
-0.012999
-0.012999
-0.005021
-0.012999
-0.022985
-0.010990
0.011994
0.014003
-0.006025
-0.022985
-0.021980
-0.015007
-0.016011
-0.020028
-0.023989
-0.030014
-0.028005
-0.018019
-0.012999
-0.023989
-0.036987
-0.035983
-0.030014
-0.029010
-0.029010
-0.025997
-0.034979
-0.047978
-0.023989
-0.017015
-0.198995
-0.598994
-0.901978
-0.768980
-0.294002
0.111018
0.215006
0.125021
0.024993
-0.022985
-0.042008
-0.048982
-0.048982
-0.045021
-0.040000
-0.034979
-0.025997
-0.008982
0.010990
0.033975
0.050990
0.051994
0.045969
0.059972
0.085969
0.094003
0.083012
0.081004
0.091994
0.096011
0.085969
0.077991
0.082008
0.096011
0.111018
0.118995
0.108005
0.087977
0.075983
0.068005
0.049986
0.027001
0.018019
0.029010
0.042008
0.047978
0.045021
0.031018
0.006973
-0.010990
-0.011994
0.000000
0.004017
-0.009986
-0.027001
-0.024993
-0.004017
0.005969
-0.011994
-0.024993
-0.006025
0.019972
0.017015
-0.006025
-0.020028
-0.029010
-0.051994
-0.070014
-0.059024
-0.032022
-0.012999
0.004017
0.027001
0.034979
0.020976
0.015007
0.030014
0.043012
0.033975
0.017015
0.015007
0.027001
0.031018
0.019972
0.012999
0.018019
0.016011
-0.003013
-0.019024
-0.018019
-0.014003
-0.017015
-0.015007
0.002008
0.023989
0.031018
0.015007
-0.010990
-0.025997
-0.024993
-0.022985
-0.030014
-0.021032
0.008982
-0.071018
-0.390013
-0.771992
-0.825995
-0.460026
-0.014003
0.201004
0.196987
0.116987
0.032022
-0.025997
-0.037992
-0.023989
-0.014003
-0.012999
-0.011994
-0.008982
-0.002008
0.011994
0.031018
0.047978
0.058019
0.064993
0.081004
0.102984
0.118995
0.122008
0.117991
0.112970
0.105997
0.103989
0.116987
0.127977
0.117991
0.094003
0.083012
0.088982
0.091994
0.085969
0.080000
0.077991
0.069010
0.054003
0.045969
0.046973
0.044017
0.027001
0.001004
-0.016011
-0.014003
0.000000
0.011994
0.015007
0.012999
0.005969
-0.004017
-0.008982
-0.001004
0.004017
-0.008982
-0.030014
-0.032022
-0.019024
-0.015007
-0.033026
-0.056011
-0.059024
-0.037992
-0.014003
-0.007978
-0.010990
-0.007029
-0.002008
-0.003013
0.001004
0.008982
0.004017
-0.006025
0.002008
0.016011
0.009986
-0.007029
-0.008982
0.000000
-0.003013
-0.012999
-0.014003
-0.007029
-0.007978
-0.019024
-0.030014
-0.034031
-0.034979
-0.041004
-0.048982
-0.050990
-0.036987
-0.019024
-0.016011
-0.028005
-0.042008
-0.041004
-0.009986
-0.008982
-0.184992
-0.567028
-0.878993
-0.791016
-0.350013
0.060976
0.192022
0.127977
0.045021
-0.005021
-0.044017
-0.068005
-0.062984
-0.044017
-0.028005
-0.020028
-0.016011
-0.009986
0.007978
0.031018
0.043012
0.042008
0.045021
0.058019
0.067001
0.070014
0.077991
0.089986
0.095007
0.088982
0.085021
0.091994
0.096011
0.090990
0.087977
0.088982
0.083012
0.069010
0.060976
0.058019
0.046973
0.031018
0.019972
0.016011
0.014003
0.014003
0.005021
-0.014003
-0.023989
-0.014003
-0.001004
-0.005021
-0.020028
-0.027001
-0.021980
-0.018019
-0.012999
-0.007029
-0.012999
-0.036987
-0.054003
-0.047029
-0.029010
-0.014003
0.000000
0.001004
-0.034031
-0.086025
-0.101980
-0.061032
-0.007978
0.004017
-0.018019
-0.021980
0.004017
0.020976
0.009986
0.004017
0.022985
0.043012
0.040000
0.022985
0.007978
-0.007029
-0.022985
-0.029010
-0.023989
-0.014003
-0.005021
0.001004
0.005969
0.016011
0.022985
0.007978
-0.030014
-0.051994
-0.029010
0.009986
0.012999
-0.024993
-0.062984
-0.060028
-0.019024
0.012999
0.011994
-0.004017
-0.083012
-0.338018
-0.699022
-0.843010
-0.567028
-0.109009
0.156987
0.164016
0.091994
0.035983
-0.024993
-0.069010
-0.056011
-0.021032
-0.016011
-0.022985
-0.003013
0.024993
0.028005
0.025997
0.050990
0.085021
0.088982
0.072970
0.071018
0.077991
0.073975
0.070014
0.087977
0.115983
0.131994
0.135007
0.134002
0.123012
0.104993
0.098019
0.107001
0.104993
0.069010
0.030014
0.032022
0.072022
0.092998
0.067001
0.032971
0.030014
0.040000
0.027001
0.000000
-0.004017
0.010990
0.008982
-0.019024
-0.033026
-0.008982
0.024993
0.028005
0.006973
-0.007029
-0.004017
0.006973
0.006973
-0.016011
-0.050990
-0.071018
-0.061032
-0.034031
-0.002008
0.018968
0.018968
0.008982
0.010990
0.021980
0.023989
0.014003
0.004017
-0.002008
-0.004017
-0.002008
0.004017
0.009986
0.008982
0.000000
-0.018019
-0.030014
-0.027001
-0.019024
-0.016011
-0.015007
-0.014003
-0.020028
-0.034031
-0.040000
-0.036987
-0.031018
-0.025997
-0.027001
-0.035983
-0.020028
-0.011994
-0.170990
-0.550012
-0.855004
-0.750012
-0.323012
0.051994
0.187001
0.157991
0.073975
-0.006025
-0.046025
-0.047029
-0.043012
-0.047978
-0.047978
-0.038996
-0.027001
-0.016011
-0.001004
0.019972
0.036987
0.043012
0.045969
0.052998
0.067001
0.080000
0.082008
0.074979
0.069010
0.071018
0.080000
0.095007
0.112970
0.115983
0.097015
0.074979
0.064993
0.058019
0.047978
0.042008
0.042008
0.038996
0.029010
0.018019
0.011994
0.008982
0.008982
0.005021
-0.004017
-0.005021
0.000000
-0.006025
-0.024993
-0.037992
-0.036987
-0.033026
-0.031018
-0.029010
-0.022985
-0.017015
-0.016011
-0.021980
-0.027001
-0.021032
-0.008982
-0.008982
-0.033026
-0.068005
-0.092998
-0.095007
-0.078996
-0.056011
-0.032022
-0.008982
0.003013
-0.004017
-0.019024
-0.021980
-0.008982
0.004017
0.000000
-0.019024
-0.034031
-0.027001
-0.009986
-0.005021
-0.014003
-0.021032
-0.018019
-0.016011
-0.025997
-0.037992
-0.042008
-0.041004
-0.037992
-0.033026
-0.030014
-0.034031
-0.041004
-0.041004
-0.031018
-0.020028
-0.027001
-0.045021
-0.043012
-0.078996
-0.307000
-0.714028
-0.946998
-0.706999
-0.203012
0.125969
0.166973
0.107001
0.057015
0.002008
-0.048982
-0.063989
-0.050990
-0.027001
-0.001004
0.014003
0.011994
0.007978
0.015007
0.020976
0.018968
0.024993
0.051994
0.080000
0.088982
0.092998
0.103989
0.112970
0.110014
0.098968
0.083012
0.073975
0.085021
0.105997
0.112022
0.104993
0.100976
0.090990
0.062984
0.041004
0.045969
0.054003
0.035983
0.009986
0.006973
0.020976
0.028005
0.032971
0.037992
0.021980
-0.020028
-0.048982
-0.031018
0.006973
0.017015
0.003013
-0.002008
0.003013
-0.002008
-0.006025
0.004017
0.008982
-0.016011
-0.052998
-0.071018
-0.063989
-0.040000
0.000000
0.035983
0.041004
0.023989
0.021980
0.033975
0.035983
0.024993
0.018968
0.018019
0.010990
-0.001004
0.000000
0.017015
0.030014
0.027001
0.025997
0.032971
0.029010
0.007978
-0.005021
-0.003013
-0.003013
-0.008982
-0.011994
-0.017015
-0.027001
-0.028005
-0.019024
-0.018019
-0.030014
-0.016011
-0.007978
-0.168981
-0.545996
-0.838993
-0.713024
-0.275982
0.085969
0.203012
0.166973
0.076987
-0.016011
-0.065997
-0.068005
-0.051994
-0.031018
-0.007978
0.004017
0.007978
0.011994
0.019972
0.032022
0.046973
0.059972
0.067001
0.068005
0.070014
0.081004
0.096011
0.105997
0.107001
0.102984
0.098968
0.098968
0.101980
0.096011
0.080000
0.072022
0.086973
0.102984
0.089986
0.057015
0.035983
0.033975
0.035983
0.033975
0.028005
0.019972
0.017015
0.019972
0.012999
-0.002008
-0.007978
