---
Mammal:            mouse
Fs:                1000
Integration_level: electrocardiogram

Channels:

    - type:   electrography
      name:   Data
      unit:   mV
      enable: yes

---

-0.050974
-0.004995
0.021003
0.000000
-0.016008
0.024011
0.079016
0.072034
0.006982
-0.040984
-0.040019
-0.019981
-0.011012
-0.006017
0.001987
0.004030
-0.000965
-0.000965
0.004995
0.003009
-0.009991
-0.019981
-0.021003
-0.017994
-0.013964
-0.006017
0.004995
0.012034
0.001987
-0.016973
-0.016973
0.009026
0.022990
0.000000
-0.027020
-0.016008
0.003009
-0.045014
-0.240965
-0.619981
-1.000019
-0.961987
-0.338997
0.387020
0.596991
0.296991
-0.027020
-0.128004
-0.126017
-0.141003
-0.150993
-0.116991
-0.060000
-0.019981
-0.004995
0.006017
0.025033
0.035989
0.030028
0.025998
0.043027
0.066982
0.074021
0.069026
0.071012
0.077994
0.069991
0.051031
0.047001
0.061987
0.069026
0.055005
0.040019
0.042006
0.048023
0.035989
0.012999
-0.000965
0.003009
0.021003
0.030993
0.009026
-0.024011
-0.025998
0.004995
0.025033
0.019016
0.012999
0.021003
0.027985
0.019981
-0.003009
-0.021968
-0.024011
-0.024011
-0.045979
-0.077994
-0.084976
-0.055005
-0.008004
0.017994
0.009026
-0.008969
0.003009
0.035024
0.040019
0.009991
-0.009991
0.001987
0.006017
-0.027020
-0.060965
-0.056991
-0.025998
0.000000
0.006982
-0.000965
-0.012999
-0.016973
-0.004995
0.006982
0.001987
-0.006017
0.000000
0.011012
0.009026
-0.001987
-0.000965
0.009991
0.011012
-0.003009
-0.016008
-0.008969
0.012999
0.025998
0.001987
-0.090993
-0.353983
-0.851012
-1.284976
-1.118997
-0.295970
0.492999
0.629007
0.272015
-0.040984
-0.107966
-0.085998
-0.097975
-0.110009
-0.072999
-0.016008
0.009026
0.003009
0.006982
0.032015
0.053983
0.060000
0.064995
0.085033
0.107001
0.108023
0.089007
0.076008
0.077029
0.082025
0.087985
0.103992
0.118013
0.105014
0.066982
0.030993
0.019981
0.035989
0.058013
0.056026
0.030028
0.009991
0.014021
0.027020
0.030028
0.027985
0.027985
0.021003
0.006017
-0.006017
-0.004995
0.001987
0.008004
0.019981
0.034002
0.029007
0.004030
-0.012999
-0.016008
-0.037975
-0.076008
-0.073964
-0.013964
0.038032
0.032015
0.009991
0.027020
0.061022
0.056026
0.017029
-0.013964
-0.019981
-0.019016
-0.021003
-0.012999
0.008004
0.009991
-0.013964
-0.030993
-0.024976
-0.019016
-0.030993
-0.048988
-0.055970
-0.050009
-0.040019
-0.043992
-0.047001
-0.019981
0.009991
-0.001987
-0.032980
-0.029007
-0.006982
-0.003974
-0.003009
0.004995
-0.008969
-0.068004
-0.217975
-0.554986
-0.972999
-1.041968
-0.496008
0.257994
0.575024
0.356991
0.027985
-0.108988
-0.108988
-0.107966
-0.131977
-0.133964
-0.094967
-0.038997
-0.006017
-0.003974
-0.012999
-0.016973
-0.016008
0.000000
0.032015
0.063009
0.069991
0.061987
0.064995
0.082990
0.085998
0.063009
0.040984
0.038032
0.037010
0.019981
0.008004
0.019981
0.032015
0.019016
0.001987
0.006017
0.009991
-0.009991
-0.027020
-0.008969
0.014986
0.009026
-0.004995
0.000000
0.006982
-0.006017
-0.019016
-0.012999
-0.008004
-0.012999
-0.011012
-0.008969
-0.040019
-0.094967
-0.113983
-0.073964
-0.019981
-0.003009
-0.016008
-0.019981
0.009991
0.051031
0.066017
0.043027
0.006982
-0.011977
-0.008004
-0.000965
-0.012999
-0.034967
-0.042971
-0.032015
-0.021968
-0.017994
-0.012999
-0.009991
-0.008969
0.001022
0.009026
-0.006017
-0.027985
-0.024976
-0.008004
-0.006017
-0.016008
-0.013964
-0.000965
0.004995
-0.003974
-0.011012
-0.006982
0.003009
0.001022
-0.066017
-0.300000
-0.733964
-1.117010
-1.018013
-0.348988
0.374021
0.580019
0.299035
-0.019981
-0.126982
-0.105979
-0.079016
-0.066017
-0.055005
-0.047001
-0.034967
-0.006982
0.034002
0.059035
0.043027
0.021003
0.038032
0.077029
0.084011
0.056991
0.045014
0.069026
0.089007
0.082990
0.072999
0.081003
0.082025
0.061987
0.040019
0.040984
0.051031
0.050009
0.038997
0.030028
0.022025
0.014986
0.016008
0.021003
0.019981
0.012034
0.004995
-0.001987
-0.008004
0.004030
0.027985
0.032015
0.008004
-0.011977
-0.006982
0.003009
-0.000965
-0.022990
-0.055005
-0.077994
-0.063009
-0.012999
0.027985
0.025033
-0.003009
-0.011012
0.011012
0.032015
0.029007
0.014986
0.011012
0.016008
0.019016
0.009026
-0.006982
-0.003009
0.029007
0.061022
0.053983
0.019981
-0.000965
-0.000965
-0.006982
-0.027985
-0.035989
-0.009991
0.024011
0.030028
0.019016
0.014021
0.004995
-0.022990
-0.042006
-0.027020
-0.001987
0.006982
0.004030
-0.013964
-0.113983
-0.418013
-0.916008
-1.263009
-1.015970
-0.225979
0.471031
0.575989
0.249991
-0.040984
-0.113018
-0.089007
-0.077994
-0.069991
-0.042971
-0.021968
-0.021003
-0.021968
-0.000965
0.038032
0.069026
0.074986
0.066982
0.069026
0.082025
0.084011
0.072999
0.071012
0.079981
0.082990
0.081003
0.087020
0.092980
0.082990
0.064995
0.060000
0.066017
0.068004
0.060000
0.050009
0.043027
0.034002
0.019016
0.003009
0.000000
0.009991
0.014021
0.006982
0.008004
0.022025
0.030993
0.025998
0.014986
0.011012
0.016008
0.016008
-0.006017
-0.047966
-0.076008
-0.064995
-0.027020
0.004030
0.009026
-0.003974
0.001987
0.043027
0.072999
0.059035
0.027020
0.008004
-0.008004
-0.024011
-0.024976
-0.009991
0.000000
0.006017
0.014986
0.021003
0.016008
0.012999
0.012034
-0.004995
-0.024011
-0.014986
0.011012
0.014986
0.003009
0.001022
0.006017
0.001022
-0.008969
-0.008969
-0.001987
0.001022
0.001022
0.006017
0.014021
0.001022
-0.105979
-0.426017
-0.937975
-1.263974
-0.953983
-0.126017
0.520019
0.539035
0.199981
-0.037010
-0.074986
-0.066017
-0.081968
-0.097975
-0.090993
-0.063009
-0.024976
0.004030
0.022025
0.042006
0.053983
0.047001
0.043992
0.069026
0.098997
0.105014
0.098032
0.090993
0.082990
0.077994
0.087985
0.098032
0.090993
0.079016
0.074021
0.064030
0.040019
0.022025
0.025998
0.035024
0.035024
0.027020
0.014021
0.008004
0.021003
0.034002
0.016008
-0.016008
-0.021003
0.001987
0.017994
0.012034
0.000000
-0.000965
0.004995
0.003009
-0.008969
-0.027020
-0.050974
-0.076973
-0.084976
-0.060000
-0.022990
-0.012999
-0.022990
-0.013964
0.029007
0.068004
0.069991
0.042006
0.012999
-0.004995
-0.006982
-0.001987
0.001022
-0.000965
-0.000965
0.006982
0.017029
0.017994
0.008004
-0.003974
-0.011012
-0.016008
-0.017994
-0.012999
-0.004995
-0.001987
-0.006017
-0.008969
-0.004995
0.000000
-0.001987
-0.008004
-0.006017
0.006982
0.017994
0.012999
-0.021003
-0.149972
-0.492999
-1.010974
-1.323974
-1.011996
-0.192999
0.476991
0.541987
0.215989
-0.040984
-0.095989
-0.087020
-0.094967
-0.090993
-0.068004
-0.047966
-0.030993
-0.004995
0.022025
0.040019
0.048988
0.061987
0.077994
0.085033
0.082990
0.082990
0.089007
0.089007
0.077994
0.069991
0.068004
0.064030
0.056026
0.051996
0.056026
0.063009
0.061987
0.051031
0.038032
0.032980
0.032980
0.027020
0.012034
0.000000
0.000000
0.001987
-0.001987
0.000000
0.011012
0.014021
0.004995
-0.001987
0.008004
0.022025
0.025033
0.016008
0.001022
-0.021968
-0.053018
-0.077994
-0.076973
-0.045979
-0.011977
0.000000
-0.004995
0.006982
0.043992
0.074986
0.068004
0.032980
0.004030
0.000000
0.012999
0.024011
0.019981
0.006017
0.000000
0.008004
0.017994
0.017029
0.008004
0.001022
-0.003009
0.001987
0.022990
0.043027
0.034002
0.004030
0.001987
0.038032
0.060000
0.046036
0.038032
0.059035
0.063009
0.025998
0.001022
0.019016
0.034002
-0.006982
-0.173018
-0.561968
-1.065979
-1.227985
-0.707966
0.144011
0.619981
0.501003
0.170009
-0.012999
-0.037975
-0.030993
-0.030993
-0.025998
-0.013964
-0.001987
0.014986
0.040019
0.056026
0.056991
0.064995
0.098997
0.145033
0.175005
0.184995
0.183009
0.170009
0.145998
0.123009
0.113018
0.116026
0.124995
0.131012
0.129991
0.116991
0.090993
0.072999
0.087985
0.123009
0.139016
0.116026
0.081003
0.066017
0.069026
0.069991
0.063009
0.056026
0.056991
0.063009
0.063009
0.051031
0.040984
0.056026
0.085998
0.094002
0.071012
0.051996
0.061987
0.074021
0.048988
-0.006982
-0.043992
-0.025998
0.030993
0.076008
0.077994
0.064030
0.077994
0.115005
0.134986
0.121022
0.095024
0.072034
0.060000
0.063009
0.082025
0.094002
0.079981
0.053983
0.046036
0.061022
0.072034
0.064995
0.053018
0.051996
0.056991
0.056026
0.051996
0.055005
0.056026
0.045014
0.034002
0.037010
0.051031
0.064030
0.069991
0.069026
0.064030
0.066982
0.076008
0.048988
-0.089972
-0.431012
-0.961987
-1.354967
-1.107020
-0.207985
0.608004
0.702006
0.300000
0.004995
-0.027985
-0.011012
-0.035989
-0.045014
-0.019016
0.009991
0.035024
0.053018
0.063009
0.072999
0.094002
0.113983
0.120000
0.116991
0.121022
0.129991
0.126017
0.116026
0.120000
0.137994
0.142990
0.129991
0.118013
0.111996
0.098997
0.082990
0.081003
0.092015
0.092980
0.079016
0.066982
0.063009
0.056991
0.050009
0.047001
0.051031
0.053018
0.053018
0.051996
0.048023
0.038997
0.030993
0.034002
0.046036
0.048988
0.038032
0.029007
0.030993
0.024011
-0.001987
-0.027020
-0.030993
-0.019981
0.000000
0.025033
0.040984
0.040019
0.043992
0.071012
0.092980
0.081003
0.050009
0.027020
0.012034
0.004995
0.012999
0.024011
0.019981
0.006982
0.009991
0.025033
0.030993
0.027020
0.025033
0.025033
0.019016
0.016008
0.019981
0.025033
0.024011
0.019016
0.016008
0.017029
0.019016
0.021003
0.021003
0.021003
0.019981
0.019981
0.009026
-0.100019
-0.437994
-0.942006
-1.204995
-0.836991
-0.024976
0.567985
0.559016
0.215024
-0.027985
-0.079016
-0.081003
-0.094002
-0.081003
-0.038997
-0.004995
0.012999
0.029007
0.047001
0.058013
0.066017
0.082025
0.100984
0.108988
0.108023
0.111996
0.121987
0.123009
0.111031
0.100984
0.105014
0.108988
0.100984
0.087985
0.085033
0.087985
0.082990
0.074986
0.074986
0.079981
0.077994
0.064030
0.053018
0.056991
0.064030
0.056991
0.038997
0.029007
0.032980
0.035989
0.032980
0.034002
0.043027
0.048023
0.046036
0.047001
0.051996
0.043027
0.014021
-0.012999
-0.022990
-0.022990
-0.008969
0.025998
0.058013
0.055005
0.040984
0.061022
0.102006
0.107001
0.069991
0.038997
0.038032
0.043027
0.030993
0.014986
0.012034
0.022025
0.035024
0.042006
0.045014
0.047001
0.047001
0.045014
0.042006
0.037010
0.030028
0.025033
0.029007
0.038032
0.043992
0.046036
0.045014
0.040019
0.037010
0.038997
0.043027
0.042006
0.040984
0.038997
0.029007
-0.022990
-0.233983
-0.685998
-1.120019
-1.000019
-0.209972
0.591031
0.732999
0.346036
0.001022
-0.079016
-0.058013
-0.066017
-0.076973
-0.055970
-0.012999
0.022025
0.042006
0.053983
0.066982
0.082025
0.097010
0.103992
0.100984
0.100984
0.113983
0.129991
0.136008
0.132034
0.124030
0.115005
0.110009
0.108023
0.108988
0.111031
0.113018
0.110009
0.098997
0.089007
0.082025
0.072034
0.064995
0.069026
0.072999
0.059035
0.043027
0.051031
0.074021
0.077029
0.053983
0.040019
0.051031
0.063009
0.056026
0.045014
0.048988
0.063009
0.071012
0.066982
0.056991
0.048988
0.038032
0.016008
-0.008969
-0.016973
0.001022
0.030993
0.050009
0.056026
0.060000
0.074021
0.097010
0.108023
0.094002
0.069991
0.053983
0.046036
0.040984
0.042006
0.050009
0.061022
0.068004
0.069026
0.066017
0.063009
0.063009
0.058013
0.051031
0.048988
0.055005
0.066017
0.069026
0.060000
0.047001
0.043992
0.048988
0.053018
0.056026
0.061022
0.068004
0.072034
0.071012
0.064995
0.055005
0.045014
-0.024976
-0.293018
-0.775970
-1.127966
-0.880019
-0.072999
0.629007
0.695989
0.317029
0.004030
-0.071012
-0.063009
-0.068004
-0.058978
-0.027985
-0.000965
0.021003
0.053018
0.087985
0.108988
0.110009
0.103027
0.105014
0.118013
0.134021
0.142025
0.136008
0.126982
0.124995
0.134986
0.142990
0.141003
0.128004
0.119035
0.118013
0.116991
0.107001
0.095024
0.090993
0.092980
0.090993
0.085998
0.082025
0.077994
0.068004
0.061022
0.064995
0.069026
0.063009
0.053983
0.053983
0.060000
0.061022
0.059035
0.058013
0.060000
0.063009
0.066982
0.071012
0.074021
0.077994
0.082025
0.084011
0.081003
0.074986
0.069026
0.072034
0.077994
0.066982
0.027020
-0.017994
-0.035989
-0.024976
0.001987
0.038997
0.069026
0.069026
0.055005
0.072034
0.106036
0.107001
0.077029
0.061987
0.069026
0.072999
0.071012
0.071012
0.072999
0.072999
0.069026
0.066017
0.068004
0.074021
0.071012
0.059035
0.053983
0.063009
0.069991
0.063009
0.051996
0.048988
0.056991
0.064030
0.063009
0.055005
0.048988
0.056026
0.068004
0.071012
0.064030
0.056026
0.050009
0.034002
-0.048988
-0.330993
-0.830009
-1.162990
-0.825979
0.063009
0.732034
0.694002
0.265033
-0.030993
-0.082990
-0.058013
-0.048988
-0.038997
-0.016008
0.009026
0.027985
0.046036
0.069026
0.090028
0.102006
0.110009
0.119035
0.128004
0.134021
0.139981
0.145998
0.150993
0.150028
0.142990
0.132034
0.121987
0.119035
0.121987
0.126982
0.126982
0.116991
0.100019
0.085998
0.081003
0.082025
0.077994
0.072034
0.071012
0.072034
0.066982
0.059035
0.060000
0.064030
0.061022
0.050009
0.045014
0.051996
0.056026
0.048988
0.043992
0.050009
0.060000
0.063009
0.061987
0.064995
0.066982
0.069991
0.071012
0.066982
0.061987
0.063009
0.066017
0.063009
0.058013
0.058013
0.056991
0.051996
0.045014
0.035024
0.012999
-0.019016
-0.045014
-0.047001
-0.014986
0.035024
0.066982
0.061022
0.055005
0.085033
0.121022
0.111996
0.069026
0.042006
0.046036
0.060000
0.068004
0.072034
0.076008
0.074986
0.072999
0.068004
0.059035
0.051031
0.051031
0.055005
0.056991
0.058013
0.056991
0.051031
0.043027
0.038997
0.040019
0.040019
0.040019
0.038032
0.035024
0.035024
0.043027
0.056026
0.066017
0.063009
0.003009
-0.235005
-0.726017
-1.191996
-1.089991
-0.306017
0.520984
0.729991
0.397010
0.047001
-0.066982
-0.058013
-0.053983
-0.058013
-0.047001
-0.016973
0.021003
0.051996
0.069991
0.085033
0.103992
0.115005
0.115005
0.116026
0.124030
0.129026
0.129991
0.131012
0.134986
0.139016
0.137029
0.128004
0.118013
0.115005
0.116991
0.116026
0.106036
0.089007
0.074986
0.076008
0.087020
0.087985
0.072999
0.058013
0.053983
0.048988
0.043027
0.040019
0.040984
0.038032
0.032980
0.038997
0.053983
0.060000
0.048988
0.030993
0.024011
0.032980
0.048988
0.056026
0.047001
0.038997
0.046036
0.058013
0.056026
0.045014
0.042006
0.043992
0.040019
0.038997
0.046036
0.040984
0.004030
-0.038997
-0.055970
-0.048988
-0.021003
0.024011
0.055005
0.045014
0.032980
0.068004
0.121022
0.132034
0.079981
-0.013964
-0.071012
-0.024011
0.061022
0.060000
-0.000965
-0.008004
0.040984
0.058013
0.021003
-0.019016
-0.024976
-0.001987
0.024011
0.030028
0.029007
0.042006
0.056026
0.051996
0.027985
-0.008969
-0.047001
-0.061987
-0.040984
-0.053018
-0.303974
-0.880984
-1.354967
-1.078978
-0.120965
0.648988
0.666017
0.270993
0.009991
-0.040984
-0.047966
-0.053983
-0.034967
-0.016008
0.001987
0.046036
0.100984
0.121022
0.107001
0.084011
0.058013
0.048988
0.077994
0.113983
0.095989
0.042006
0.042006
0.120000
0.189991
0.176991
0.111031
0.074021
0.092015
0.118013
0.097010
0.046036
0.027020
0.053018
0.077029
0.079981
0.082990
0.084011
0.056026
0.012999
-0.001987
0.022990
0.047001
0.035989
0.008004
0.001022
0.014021
0.014986
-0.003009
-0.016008
-0.012999
0.000000
0.016008
0.027020
0.019981
-0.006017
-0.019981
-0.001987
0.017994
0.008004
-0.016973
-0.019981
0.001987
0.012999
-0.012999
-0.058013
-0.095989
-0.107966
-0.084976
-0.037010
0.001987
0.014021
0.022025
0.051031
0.069991
0.046036
0.011012
0.012034
0.027985
0.014986
-0.016008
-0.021003
-0.000965
0.006982
-0.008969
-0.019981
-0.004995
0.017994
0.019981
0.000000
-0.011012
0.000000
0.009991
0.000000
-0.021003
-0.025998
-0.016008
-0.011012
-0.030993
-0.154002
-0.504976
-0.989972
-1.140965
-0.609991
0.243009
0.687020
0.499016
0.095989
-0.120965
-0.147020
-0.131977
-0.120000
-0.098997
-0.073964
-0.048988
-0.017994
0.006982
0.019016
0.030993
0.050009
0.063009
0.064995
0.072999
0.084011
0.077994
0.068004
0.077994
0.094002
0.095989
0.095989
0.105014
0.100984
0.077029
0.060000
0.064030
0.072034
0.063009
0.043027
0.032015
0.040984
0.047001
0.030993
0.009026
0.009026
0.030993
0.042006
0.035989
0.030993
0.030993
0.024011
0.012999
0.016008
0.029007
0.034002
0.027985
0.027020
0.040984
0.051996
0.040019
0.014021
0.004995
0.019981
0.035989
0.040984
0.035024
0.014986
-0.024011
-0.063974
-0.076973
-0.051996
-0.004995
0.021003
0.014021
0.012999
0.043027
0.066017
0.050009
0.027020
0.032980
0.046036
0.032980
0.012034
0.011012
0.025998
0.034002
0.038032
0.048988
0.051031
0.027020
0.000000
0.003009
0.025033
0.032015
0.027020
0.032015
0.038997
0.030028
0.025033
0.035989
0.022990
-0.098997
-0.433964
-0.968969
-1.328004
-1.010009
-0.116991
0.578032
0.575989
0.196008
-0.047001
-0.077994
-0.063974
-0.071977
-0.077994
-0.064995
-0.029007
0.022025
0.064995
0.079981
0.071012
0.060000
0.064995
0.085033
0.102006
0.107001
0.102006
0.095989
0.102006
0.121022
0.134986
0.123009
0.097010
0.092015
0.113983
0.126982
0.100984
0.058013
0.045014
0.064995
0.079981
0.064030
0.040984
0.038997
0.046036
0.038032
0.027985
0.038032
0.050009
0.043027
0.029007
0.032015
0.040019
0.042006
0.048988
0.066017
0.068004
0.045014
0.032015
0.045014
0.053983
0.035024
0.012034
0.009991
0.022990
0.025033
0.004995
-0.025998
-0.047001
-0.037010
0.001022
0.035989
0.056026
0.074986
0.095989
0.090993
0.058013
0.034002
0.040984
0.043992
0.024011
0.011012
0.029007
0.050009
0.038032
0.008004
0.003009
0.032015
0.063009
0.060000
0.030028
0.009991
0.012999
0.019981
0.019981
0.025998
0.032980
0.032015
0.025998
0.021003
0.009991
-0.048988
-0.267020
-0.733964
-1.206982
-1.146982
-0.405014
0.402006
0.616008
0.324011
0.040019
-0.035989
-0.042006
-0.063009
-0.063009
-0.030993
-0.003009
0.014986
0.037010
0.058013
0.069026
0.077029
0.094002
0.108023
0.106036
0.098032
0.102006
0.118013
0.132034
0.129026
0.110009
0.095989
0.110009
0.132034
0.126982
0.103027
0.089007
0.087985
0.082990
0.069991
0.059035
0.061987
0.072999
0.072999
0.055005
0.035989
0.030028
0.035989
0.045014
0.045014
0.030028
0.019981
0.037010
0.056026
0.040019
0.012999
0.016008
0.038032
0.038032
0.017029
0.006982
0.011012
0.006017
-0.019981
-0.051996
-0.058013
-0.016973
0.037010
0.045014
0.012034
0.014021
0.074021
0.116991
0.085033
0.022025
-0.003009
0.012034
0.025998
0.022025
0.006982
-0.003974
-0.000965
0.012999
0.025033
0.025998
0.021003
0.011012
0.001022
0.001987
0.008004
0.006017
-0.003974
-0.004995
0.001022
0.006017
0.009026
0.016008
0.022025
0.019981
0.006982
-0.068004
-0.345014
-0.859016
-1.274986
-1.093964
-0.311012
0.434986
0.600000
0.311012
0.030993
-0.050974
-0.050009
-0.064995
-0.072999
-0.045014
-0.011012
0.006017
0.016008
0.030028
0.042006
0.051031
0.066017
0.082025
0.090993
0.092980
0.092980
0.089007
0.084011
0.085033
0.087985
0.085033
0.072999
0.060000
0.061987
0.072034
0.068004
0.048988
0.035989
0.040984
0.038032
0.012999
0.000000
0.016008
0.030028
0.016008
0.000000
0.000000
0.001987
-0.003009
-0.001987
0.000000
-0.004995
-0.009991
-0.003009
0.009026
0.014986
0.009026
-0.011977
-0.043992
-0.073964
-0.084011
-0.072999
-0.043992
-0.012999
-0.009991
-0.029972
-0.024976
0.027020
0.072999
0.058013
0.000000
-0.042006
-0.037975
-0.008004
0.012034
0.009991
0.001987
0.000000
-0.003009
-0.012999
-0.019016
-0.016008
-0.011012
-0.011977
-0.011977
-0.004995
0.001022
0.001022
-0.003009
-0.008969
-0.017994
-0.022990
-0.017994
-0.009991
-0.006017
-0.000965
0.004030
-0.011977
-0.107001
-0.394967
-0.877010
-1.211977
-0.947001
-0.170974
0.454002
0.492999
0.194021
-0.014986
-0.053018
-0.055970
-0.073964
-0.072999
-0.048988
-0.022990
-0.000965
0.022025
0.035989
0.040984
0.051996
0.072034
0.085033
0.085033
0.082025
0.082025
0.085033
0.090993
0.098997
0.098997
0.092015
0.087020
0.090028
0.090028
0.081003
0.069026
0.063009
0.060000
0.048988
0.032980
0.025033
0.030028
0.040019
0.042006
0.034002
0.022025
0.014986
0.017029
0.019981
0.012034
0.001987
0.003009
0.012034
0.016008
0.014986
0.009991
-0.006017
-0.035989
-0.064995
-0.071977
-0.050974
-0.014986
0.004030
-0.004995
-0.001987
0.043027
0.085998
0.077029
0.045014
0.034002
0.035989
0.025033
0.004995
-0.006982
-0.008969
0.001022
0.011012
0.012034
0.009026
0.011012
0.021003
0.025998
0.016008
-0.000965
-0.008004
-0.003974
-0.006017
-0.008969
0.001987
0.019016
0.017029
0.004995
-0.003009
-0.004995
0.001022
0.014986
0.017029
-0.021003
-0.144011
-0.465979
-1.005014
-1.383009
-1.075970
-0.178978
0.533018
0.552034
0.184995
-0.060000
-0.097010
-0.092015
-0.097010
-0.082990
-0.060965
-0.050974
-0.038997
-0.009991
0.027020
0.058013
0.079016
0.082990
0.077029
0.079016
0.094002
0.103027
0.097010
0.090028
0.098032
0.111996
0.111996
0.100984
0.098032
0.107001
0.103992
0.077029
0.061022
0.089007
0.108988
0.059035
-0.016008
-0.024011
0.030028
0.072999
0.069026
0.043027
0.019981
0.017994
0.043992
0.082990
0.105014
0.095024
0.059035
0.019981
-0.008969
-0.030993
-0.047966
-0.055970
-0.055970
-0.042971
-0.008969
0.024011
0.035989
0.056991
0.111996
0.147020
0.113983
0.048988
0.017994
0.022025
0.027020
0.025998
0.025998
0.017029
-0.011977
-0.034002
-0.004995
0.056991
0.084011
0.058013
0.038032
0.051996
0.059035
0.030993
-0.011977
-0.042971
-0.055970
-0.045979
-0.016973
-0.003009
-0.019981
-0.034002
-0.016008
0.017994
0.034002
0.032980
0.022025
-0.076973
-0.398997
-0.893018
-1.165998
-0.846982
-0.121987
0.400019
0.410009
0.155989
-0.016973
-0.055005
-0.066982
-0.092980
-0.087985
-0.042006
0.001022
0.012999
0.014986
0.022990
0.035024
0.048988
0.064030
0.064995
0.047001
0.034002
0.042006
0.056991
0.063009
0.038997
-0.024976
-0.084011
-0.058978
0.035989
0.079981
0.024011
-0.037010
-0.034002
-0.008969
0.001987
0.025033
0.060000
0.072999
0.066017
0.059035
0.043027
0.008004
-0.022990
-0.016008
0.016008
0.035024
0.021003
0.003009
0.001987
-0.000965
-0.021968
-0.035989
-0.027020
-0.014986
-0.016973
-0.006017
0.030993
0.056026
0.037010
0.009026
0.016008
0.042006
0.040019
0.011012
-0.008004
0.003009
0.019016
0.011012
-0.013964
-0.022990
-0.001987
0.022025
0.022025
0.017029
0.030993
0.043992
0.022990
-0.009991
-0.016008
0.008004
0.027020
0.017994
-0.000965
-0.001987
0.012999
0.019981
0.017994
0.022025
0.019981
-0.003009
-0.029007
-0.019981
0.024011
0.040019
-0.113018
-0.525014
-0.979981
-1.008988
-0.437994
0.262990
0.509007
0.291996
0.034002
-0.050009
-0.068969
-0.110974
-0.128004
-0.095989
-0.061987
-0.035989
0.009026
0.053018
0.053018
0.030993
0.030993
0.040019
0.030993
0.034002
0.069026
0.095989
0.095989
0.094002
0.082990
0.050009
0.035989
0.064995
0.092980
0.087985
0.068004
0.053983
0.047001
0.043027
0.034002
0.012999
-0.008004
-0.006982
0.016008
0.032015
0.022990
0.006982
0.011012
0.027020
0.027020
0.004995
-0.016008
-0.016008
-0.006982
-0.012999
-0.042971
-0.081003
-0.105014
-0.110974
-0.095989
-0.063974
-0.040019
-0.037975
-0.024011
0.027020
0.074986
0.064995
0.009026
-0.034967
-0.032015
-0.006982
-0.006017
-0.040984
-0.063974
-0.035989
0.011012
0.014021
-0.022990
-0.047001
-0.045979
-0.050009
-0.051996
-0.024976
0.009026
0.001987
-0.034967
-0.043992
-0.012999
0.006017
-0.013964
-0.037010
-0.034002
-0.034002
-0.066982
-0.087020
-0.051996
-0.008004
-0.037975
-0.210993
-0.601987
-1.097994
-1.258978
-0.771996
-0.008969
0.385033
0.283027
0.037010
-0.107966
-0.152980
-0.142990
-0.118013
-0.110009
-0.115970
-0.105014
-0.063974
-0.003009
0.046036
0.060000
0.051996
0.042006
0.025033
-0.001987
-0.011977
0.006017
0.027020
0.038997
0.055005
0.066982
0.048023
0.012034
0.022025
0.079981
0.103992
0.058013
0.004995
0.000000
0.014986
0.008004
-0.014986
-0.029972
-0.025998
-0.001987
0.025033
0.022990
-0.012999
-0.047001
-0.047001
-0.035989
-0.042971
-0.055970
-0.050974
-0.053983
-0.098997
-0.150993
-0.144011
-0.089972
-0.061987
-0.074986
-0.068969
-0.025998
0.003009
-0.000965
0.003009
0.025033
0.014021
-0.037010
-0.066017
-0.045979
-0.022990
-0.027020
-0.034967
-0.034002
-0.040984
-0.050974
-0.047001
-0.038997
-0.047966
-0.063009
-0.058013
-0.037975
-0.037010
-0.055970
-0.063009
-0.045979
-0.030993
-0.040019
-0.060965
-0.068969
-0.064995
-0.058013
-0.042971
-0.017994
-0.019016
-0.095989
-0.298978
-0.684011
-1.149991
-1.292015
-0.786017
0.030993
0.454002
0.291031
-0.024976
-0.147020
-0.137994
-0.139016
-0.141968
-0.103992
-0.042971
-0.003009
0.004030
-0.006982
-0.013964
-0.003009
0.021003
0.038032
0.034002
0.029007
0.046036
0.074986
0.098997
0.113018
0.108988
0.084011
0.061022
0.060000
0.079981
0.095989
0.077994
0.040984
0.038997
0.066017
0.050009
-0.008004
-0.021968
0.025998
0.055005
0.032980
0.008004
0.008004
0.014986
0.014986
0.009026
0.000000
-0.003009
0.008004
0.006017
-0.038997
-0.100019
-0.123009
-0.097975
-0.058978
-0.034967
-0.029007
-0.024011
-0.003009
0.027020
0.038997
0.032015
0.032015
0.038997
0.022025
-0.017994
-0.027020
0.003009
0.006982
-0.037010
-0.063009
-0.024976
0.022990
0.022990
-0.000965
-0.003009
0.014021
0.030993
0.032015
0.006017
-0.029007
-0.034002
0.001987
0.038032
0.035024
0.008004
-0.012999
-0.019016
-0.016008
-0.000965
0.016008
0.000000
-0.108988
-0.407001
-0.898013
-1.253983
-1.020000
-0.267020
0.345014
0.392980
0.145033
0.001022
-0.024976
-0.073964
-0.136973
-0.144976
-0.107966
-0.055970
-0.004995
0.025033
0.034002
0.043027
0.050009
0.035989
0.029007
0.063009
0.103992
0.100019
0.072999
0.069991
0.079981
0.074021
0.061987
0.060000
0.061022
0.059035
0.048988
0.022025
-0.004995
-0.003974
0.011012
0.011012
0.001987
0.006982
0.014986
0.006982
-0.014986
-0.032015
-0.030993
-0.019981
-0.012999
-0.014986
-0.016973
-0.017994
-0.027985
-0.058013
-0.100019
-0.134986
-0.134986
-0.094002
-0.055970
-0.060965
-0.077994
-0.047966
0.014986
0.035989
0.000000
-0.029007
-0.017994
-0.006017
-0.024011
-0.050009
-0.055970
-0.045979
-0.037975
-0.040984
-0.056991
-0.073964
-0.068969
-0.035989
-0.008969
-0.017994
-0.045979
-0.050009
-0.024976
-0.008969
-0.021968
-0.040019
-0.043992
-0.047001
-0.051996
-0.032980
0.001987
0.008004
-0.022990
-0.053018
-0.081968
-0.218997
-0.582971
-1.054002
-1.188988
-0.681968
0.103027
0.480000
0.293983
-0.019981
-0.131012
-0.107001
-0.094002
-0.102971
-0.103992
-0.087985
-0.053983
-0.013964
0.017029
0.027985
0.027020
0.025998
0.032015
0.038997
0.045014
0.059035
0.077029
0.089007
0.090028
0.085033
0.071012
0.050009
0.038032
0.042006
0.051996
0.047001
0.024011
-0.000965
-0.013964
-0.008969
0.008004
0.024011
0.024011
0.001987
-0.021003
-0.012999
0.019016
0.035989
0.017029
-0.021968
-0.055970
-0.068004
-0.055970
-0.051996
-0.081003
-0.118013
-0.126982
-0.110009
-0.084011
-0.050974
-0.012999
0.032015
0.071012
0.064995
0.004995
-0.045014
-0.035989
-0.004995
-0.011012
-0.042006
-0.055005
-0.051996
-0.051996
-0.042006
-0.016973
-0.004995
-0.019981
-0.034967
-0.024976
-0.006982
-0.012999
-0.034002
-0.032015
-0.008969
0.000000
-0.008969
-0.006982
-0.000965
-0.014986
-0.034967
-0.034002
-0.025998
-0.035989
-0.069991
-0.147020
-0.381968
-0.853964
-1.298997
-1.185014
-0.413983
0.353983
0.496008
0.168023
-0.100984
-0.142990
-0.118978
-0.120965
-0.116991
-0.108988
-0.123974
-0.131012
-0.081003
0.001022
0.038997
0.019016
-0.008969
-0.011977
0.006017
0.045014
0.085033
0.085998
0.045014
0.014986
0.019016
0.019981
0.004030
0.006017
0.035989
0.055005
0.035024
-0.011012
-0.047001
-0.047966
-0.022990
0.001022
0.019981
0.035024
0.022025
-0.014986
-0.027020
-0.008969
-0.019981
-0.061987
-0.074986
-0.053983
-0.063009
-0.110974
-0.139981
-0.126017
-0.092980
-0.051996
-0.022990
-0.047001
-0.098997
-0.082990
0.012999
0.064995
-0.006017
-0.103992
-0.105979
-0.032015
0.009991
-0.011012
-0.038997
-0.035989
-0.029007
-0.032980
-0.024976
-0.006017
-0.019981
-0.066017
-0.081968
-0.055005
-0.042006
-0.066017
-0.084976
-0.081968
-0.074986
-0.058978
-0.021968
-0.003974
-0.047001
-0.128004
-0.191977
-0.189991
-0.094002
0.030993
-0.032980
-0.449972
-1.041968
-1.292980
-0.843974
0.004995
0.520984
0.390993
0.001987
-0.231996
-0.319981
-0.372999
-0.368004
-0.311012
-0.259981
-0.184995
-0.072999
-0.012999
-0.038997
-0.060000
-0.003974
0.060000
0.027020
-0.071012
-0.100019
-0.037010
0.008004
-0.011977
-0.030993
-0.012999
-0.004995
-0.032980
-0.076973
-0.105979
-0.084976
0.004030
0.100019
0.108023
0.009026
-0.089007
-0.089007
-0.047966
-0.087985
-0.188969
-0.204011
-0.098997
0.001022
0.006982
-0.029007
-0.032980
-0.037010
-0.124995
-0.259981
-0.285014
-0.152980
-0.029007
-0.047966
-0.139016
-0.167966
-0.118978
-0.055970
-0.027020
-0.030993
-0.053983
-0.087985
-0.121987
-0.128004
-0.110974
-0.124995
-0.180000
-0.192999
-0.115970
-0.037010
-0.050009
-0.120000
-0.147985
-0.113983
-0.063009
-0.008969
0.006017
-0.110009
-0.313964
-0.368969
-0.176991
0.012999
-0.016973
-0.120000
-0.082990
0.004030
-0.022990
-0.102971
-0.118013
-0.098997
-0.139016
-0.381003
-0.929972
-1.452999
-1.294967
-0.395989
0.431012
0.526036
0.110009
-0.251977
-0.363009
-0.340984
-0.327020
-0.368004
-0.385998
-0.282006
-0.124995
-0.060965
-0.084976
-0.097010
-0.081003
-0.087985
-0.113983
-0.095989
-0.008004
0.056026
-0.022990
-0.167001
-0.173983
-0.050009
0.017994
-0.025998
-0.068969
-0.063974
-0.066017
-0.094002
-0.113018
-0.108988
-0.100019
-0.094002
-0.094967
-0.124995
-0.163992
-0.141003
-0.069991
-0.089007
-0.225014
-0.298978
-0.207020
-0.089007
-0.087985
-0.150993
-0.167966
-0.152015
-0.162971
-0.178978
-0.152015
-0.133964
-0.201003
-0.265998
-0.196973
-0.058978
-0.012999
-0.034967
-0.014986
-0.009991
-0.126982
-0.253964
-0.212015
-0.069991
-0.029007
-0.107001
-0.173983
-0.167966
-0.113983
-0.040984
-0.001987
-0.053983
-0.147020
-0.165979
-0.111996
-0.095989
-0.124995
-0.094967
0.006017
0.046036
-0.034002
-0.134986
-0.167001
-0.157010
-0.145998
-0.118978
-0.068004
-0.063009
-0.277010
-0.820984
-1.422971
-1.457994
-0.685998
0.248004
0.530009
0.154002
-0.278997
-0.439981
-0.452980
-0.454967
-0.431977
-0.371012
-0.304995
-0.256008
-0.214967
-0.158997
-0.097010
-0.087985
-0.163992
-0.248004
-0.225979
-0.115970
-0.040984
-0.068969
-0.144976
-0.171996
-0.123009
-0.068969
-0.081003
-0.134986
-0.128004
-0.016973
0.082025
0.006017
-0.217975
-0.335989
-0.209972
-0.034002
-0.011012
-0.073964
-0.100019
-0.110974
-0.126017
-0.107966
-0.092980
-0.121987
-0.126017
-0.071012
-0.064995
-0.158997
-0.236991
-0.227001
-0.204011
-0.215989
-0.196973
-0.128004
-0.090993
-0.123009
-0.141003
-0.077994
0.017994
0.045014
-0.037010
-0.157975
-0.210993
-0.162006
-0.102971
-0.131977
-0.210993
-0.207020
-0.110009
-0.050974
-0.084976
-0.107001
-0.058013
-0.017994
-0.063009
-0.160984
-0.235970
-0.240965
-0.183009
-0.115970
-0.097975
-0.115970
-0.113983
-0.092015
-0.123009
-0.217010
-0.274002
-0.227001
-0.152015
-0.209007
-0.548004
-1.110993
-1.451012
-1.071996
-0.160019
0.483009
0.397010
-0.090993
-0.442990
-0.492999
-0.407966
-0.358978
-0.347966
-0.298013
-0.220019
-0.180965
-0.178013
-0.171996
-0.163992
-0.162971
-0.157975
-0.118013
-0.027020
0.045014
-0.008004
-0.154967
-0.240965
-0.183009
-0.058978
0.016008
0.012999
-0.016008
-0.019981
-0.029972
-0.076973
-0.113018
-0.090993
-0.064995
-0.110009
-0.186982
-0.192999
-0.115970
-0.048988
-0.055970
-0.115005
-0.162006
-0.165014
-0.141968
-0.128969
-0.141003
-0.160019
-0.170009
-0.186982
-0.217010
-0.236991
-0.243974
-0.259016
-0.246017
-0.152015
-0.021968
0.024011
-0.045014
-0.149972
-0.207985
-0.193964
-0.126017
-0.045014
-0.019016
-0.092015
-0.214967
-0.261003
-0.170009
-0.045014
-0.021003
-0.087020
-0.132999
-0.126017
-0.103992
-0.079016
-0.056991
-0.094002
-0.191977
-0.252999
-0.204976
-0.097975
-0.027985
-0.037010
-0.081968
-0.094967
-0.069991
-0.073964
-0.176991
-0.452015
-0.917994
-1.323974
-1.212999
-0.501968
0.241022
0.415005
0.072034
-0.298013
-0.423974
-0.387020
-0.324976
-0.285014
-0.257994
-0.218997
-0.165979
-0.157010
-0.214967
-0.249991
-0.180965
-0.079981
-0.053983
-0.085998
-0.102971
-0.094967
-0.082990
-0.069991
-0.076973
-0.120000
-0.147020
-0.110009
-0.060965
-0.063009
-0.084976
-0.081968
-0.074986
-0.068969
-0.042971
-0.050009
-0.136973
-0.207020
-0.152980
-0.068004
-0.084976
-0.139981
-0.115970
-0.069991
-0.085998
-0.107966
-0.121987
-0.238978
-0.429991
-0.462006
-0.262990
-0.064995
-0.048988
-0.120965
-0.126982
-0.058013
-0.008969
-0.042006
-0.115005
-0.134986
-0.084011
-0.053983
-0.107966
-0.188969
-0.191012
-0.102971
-0.035989
-0.043992
-0.024011
0.071012
0.089007
-0.058013
-0.202990
-0.188004
-0.090993
-0.051996
-0.071977
-0.081968
-0.068004
-0.079981
-0.139016
-0.188004
-0.158997
-0.079981
-0.042006
-0.081968
-0.141003
-0.145998
-0.163992
-0.436008
-1.020965
-1.453964
-1.164976
-0.295005
0.369991
0.366982
-0.008969
-0.295005
-0.397975
-0.439981
-0.457010
-0.395989
-0.267020
-0.175005
-0.183974
-0.207020
-0.141003
-0.048988
-0.056991
-0.134986
-0.154967
-0.110009
-0.100984
-0.147985
-0.170974
-0.123974
-0.050009
-0.001987
0.009991
0.001022
-0.027985
-0.073964
-0.107966
-0.100019
-0.068004
-0.058978
-0.084976
-0.116991
-0.126982
-0.110009
-0.074986
-0.024976
0.029007
0.024011
-0.081003
-0.201003
-0.202990
-0.120000
-0.098997
-0.163992
-0.207020
-0.178013
-0.134986
-0.149972
-0.207020
-0.210993
-0.110974
-0.001987
-0.003009
-0.087020
-0.129991
-0.094002
-0.063009
-0.105014
-0.173983
-0.181987
-0.110974
-0.025998
0.014986
-0.011977
-0.100984
-0.196008
-0.215989
-0.163992
-0.113018
-0.081968
-0.042971
-0.029972
-0.084011
-0.142990
-0.134986
-0.108988
-0.108988
-0.077994
-0.021003
-0.027985
-0.087985
-0.102006
-0.089972
-0.178978
-0.465979
-0.942971
-1.365014
-1.277994
-0.538013
0.296026
0.510993
0.105014
-0.321968
-0.410009
-0.332015
-0.334002
-0.381968
-0.351996
-0.272980
-0.254986
-0.272015
-0.218997
-0.103992
-0.032980
-0.042971
-0.077994
-0.079016
-0.037975
0.001987
-0.027985
-0.129991
-0.199981
-0.157975
-0.064995
-0.022990
-0.030993
-0.034002
-0.034967
-0.071012
-0.111996
-0.108988
-0.085998
-0.079981
-0.079016
-0.084976
-0.136008
-0.202990
-0.207020
-0.137994
-0.076973
-0.076008
-0.123974
-0.191977
-0.269972
-0.329972
-0.298978
-0.176991
-0.110009
-0.194986
-0.282006
-0.204011
-0.064995
-0.042971
-0.092015
-0.084011
-0.045014
-0.066017
-0.124995
-0.149972
-0.116991
-0.060000
-0.066982
-0.186982
-0.285979
-0.201968
-0.030993
0.004995
-0.090993
-0.150993
-0.129991
-0.103992
-0.100984
-0.097975
-0.102971
-0.113983
-0.094002
-0.045014
-0.032015
-0.090993
-0.170974
-0.184995
-0.118978
-0.058978
-0.084976
-0.243009
-0.593983
-1.083009
-1.316991
-0.887966
-0.032015
0.499016
0.332015
-0.165014
-0.465979
-0.449007
-0.327020
-0.285979
-0.309991
-0.291996
-0.230974
-0.201968
-0.199016
-0.163992
-0.126017
-0.152015
-0.192999
-0.160019
-0.079016
-0.042006
-0.055005
-0.066017
-0.077994
-0.115970
-0.154002
-0.144976
-0.089007
-0.034002
-0.034002
-0.092015
-0.142990
-0.141968
-0.128004
-0.134986
-0.126017
-0.092015
-0.089007
-0.113983
-0.111996
-0.077994
-0.064995
-0.090993
-0.128969
-0.163992
-0.214967
-0.287001
-0.296991
-0.186982
-0.071977
-0.094967
-0.186017
-0.180965
-0.079981
-0.012999
-0.040019
-0.116991
-0.160984
-0.131977
-0.079981
-0.089007
-0.144976
-0.152980
-0.094967
-0.050009
-0.047966
-0.050974
-0.050974
-0.077994
-0.110974
-0.100984
-0.071012
-0.076973
-0.107001
-0.100984
-0.063009
-0.055970
-0.100019
-0.133964
-0.115970
-0.079981
-0.069991
-0.081003
-0.100984
-0.126982
-0.152015
-0.223992
-0.480000
-0.953018
-1.318978
-1.107985
-0.327985
0.363009
0.407001
-0.021003
-0.366017
-0.420000
-0.361987
-0.334002
-0.321003
-0.300000
-0.290974
-0.300965
-0.304995
-0.265998
-0.178978
-0.105014
-0.107001
-0.149972
-0.144976
-0.087020
-0.056991
-0.100019
-0.157010
-0.136973
-0.051996
-0.027985
-0.128004
-0.215989
-0.147020
-0.008969
0.012034
-0.077994
-0.136973
-0.139981
-0.157010
-0.165979
-0.102971
-0.032980
-0.069991
-0.175005
-0.199981
-0.113983
-0.053983
-0.123974
-0.249991
-0.293018
-0.231996
-0.173018
-0.189991
-0.238013
-0.230974
-0.155989
-0.076973
-0.056991
-0.081003
-0.095989
-0.089972
-0.108988
-0.152980
-0.162971
-0.115970
-0.064995
-0.063974
-0.113983
-0.186017
-0.214967
-0.158997
-0.074986
-0.056991
-0.098997
-0.150993
-0.212015
-0.243974
-0.194986
-0.110974
-0.079981
-0.092015
-0.102971
-0.108988
-0.126982
-0.167001
-0.202990
-0.157010
-0.058013
-0.077994
-0.274002
-0.538013
-0.851012
-1.182006
-1.175989
-0.561003
0.212980
0.432034
0.068004
-0.337975
-0.476991
-0.428004
-0.345979
-0.324976
-0.358978
-0.334002
-0.215989
-0.124995
-0.147020
-0.218997
-0.243974
-0.199981
-0.131012
-0.092980
-0.092015
-0.092980
-0.073964
-0.050974
-0.058978
-0.097010
-0.116991
-0.098997
-0.084976
-0.092015
-0.072999
-0.027020
-0.016008
-0.060000
-0.103992
-0.115970
-0.116991
-0.133964
-0.152015
-0.133964
-0.089007
-0.079981
-0.120000
-0.149972
-0.149972
-0.168988
-0.222971
-0.253964
-0.235970
-0.207985
-0.201968
-0.193964
-0.144011
-0.084976
-0.081968
-0.124995
-0.126017
-0.060965
-0.014986
-0.045979
-0.120000
-0.183974
-0.228988
-0.235005
-0.186017
-0.118978
-0.085998
-0.069991
-0.029972
0.009026
-0.016008
-0.102971
-0.178978
-0.186982
-0.139016
-0.071977
-0.021003
-0.032015
-0.107966
-0.157010
-0.118978
-0.082990
-0.118978
-0.144011
-0.095989
-0.058978
-0.132999
-0.397975
-0.903974
-1.404011
-1.334986
-0.533018
0.327020
0.494021
0.061987
-0.332980
-0.400984
-0.330993
-0.313964
-0.342971
-0.356991
-0.324976
-0.244995
-0.165014
-0.152980
-0.196008
-0.202990
-0.139016
-0.072999
-0.072999
-0.115970
-0.154002
-0.160984
-0.123974
-0.050974
0.017994
0.043027
0.001987
-0.100019
-0.193964
-0.181987
-0.081003
-0.022990
-0.066017
-0.126017
-0.128004
-0.094002
-0.056991
-0.035989
-0.072999
-0.163992
-0.227001
-0.214002
-0.167966
-0.136973
-0.141003
-0.193964
-0.259016
-0.261003
-0.209972
-0.183974
-0.188004
-0.158997
-0.100984
-0.058013
-0.037975
-0.048988
-0.110009
-0.162006
-0.132999
-0.084976
-0.107966
-0.141968
-0.089007
-0.008969
-0.019016
-0.098997
-0.144011
-0.129991
-0.095989
-0.060000
-0.047001
-0.076973
-0.113983
-0.107966
-0.087020
-0.105014
-0.131977
-0.092980
-0.000965
0.027020
-0.066982
-0.175005
-0.171996
-0.089007
-0.063009
-0.184995
-0.522006
-1.057010
-1.456008
-1.211012
-0.363974
0.353018
0.403027
0.040984
-0.235970
-0.342006
-0.418978
-0.473018
-0.444976
-0.373964
-0.308969
-0.238978
-0.158997
-0.107966
-0.110009
-0.137994
-0.141968
-0.105014
-0.068004
-0.084011
-0.124995
-0.113018
-0.055970
-0.050009
-0.102971
-0.126982
-0.095989
-0.066982
-0.066982
-0.107966
-0.186982
-0.225014
-0.149007
-0.043992
-0.038997
-0.102971
-0.120965
-0.085998
-0.069991
-0.073964
-0.060000
-0.053018
-0.100984
-0.196008
-0.277975
-0.303974
-0.270993
-0.217010
-0.194986
-0.197994
-0.154002
-0.055005
0.001022
-0.027020
-0.064995
-0.072999
-0.102006
-0.147020
-0.141003
-0.110009
-0.147020
-0.217010
-0.196973
-0.102971
-0.063974
-0.118013
-0.175005
-0.163992
-0.108988
-0.089972
-0.136008
-0.170009
-0.120965
-0.043992
-0.032980
-0.079981
-0.126982
-0.167966
-0.204976
-0.204011
-0.154002
-0.082990
-0.025998
-0.027020
-0.129991
-0.335989
-0.663009
-1.093964
-1.331012
-0.974986
-0.167001
0.398997
0.319016
-0.097010
-0.385998
-0.454002
-0.434986
-0.397010
-0.321003
-0.223992
-0.180000
-0.225979
-0.296991
-0.277975
-0.137994
0.012034
0.034002
-0.063974
-0.144976
-0.128969
-0.079016
-0.066017
-0.066017
-0.042006
-0.032980
-0.084976
-0.139016
-0.100984
0.003009
0.046036
-0.013964
-0.094002
-0.128004
-0.121987
-0.095989
-0.081968
-0.098997
-0.118978
-0.110974
-0.097975
-0.113018
-0.157010
-0.227966
-0.295005
-0.295970
-0.220984
-0.154002
-0.158997
-0.196973
-0.191012
-0.139016
-0.118978
-0.154002
-0.170009
-0.118978
-0.076008
-0.110974
-0.181987
-0.209972
-0.180965
-0.123974
-0.089972
-0.128004
-0.201968
-0.201968
-0.118978
-0.081003
-0.133964
-0.162006
-0.105979
-0.055005
-0.071012
-0.097010
-0.089972
-0.084011
-0.107001
-0.144011
-0.178978
-0.194986
-0.162006
-0.084976
-0.021968
-0.021968
-0.089007
-0.240965
-0.557994
-1.018013
-1.310974
-1.036973
-0.278997
0.334002
0.330993
-0.077994
-0.384011
-0.405979
-0.324011
-0.300965
-0.311012
-0.280019
-0.218997
-0.180000
-0.171996
-0.157975
-0.141968
-0.154967
-0.167001
-0.116991
-0.027985
0.017994
-0.004995
-0.063974
-0.107966
-0.097975
-0.053983
-0.038997
-0.056991
-0.063974
-0.068969
-0.098997
-0.118013
-0.082990
-0.032980
-0.034967
-0.077994
-0.095989
-0.071977
-0.069991
-0.123009
-0.162971
-0.123009
-0.063009
-0.092980
-0.209007
-0.288988
-0.259016
-0.170009
-0.116991
-0.118013
-0.115970
-0.079016
-0.051996
-0.073964
-0.102971
-0.084011
-0.048988
-0.056991
-0.100019
-0.124995
-0.118013
-0.100019
-0.089972
-0.100019
-0.123974
-0.134986
-0.118978
-0.089972
-0.060000
-0.042006
-0.055970
-0.095989
-0.108988
-0.068969
-0.042971
-0.085998
-0.144976
-0.147020
-0.110974
-0.090993
-0.087985
-0.077994
-0.076973
-0.102971
-0.141968
-0.244995
-0.544995
-0.994967
-1.206982
-0.854986
-0.173018
0.249991
0.178013
-0.110009
-0.313964
-0.395989
-0.408988
-0.363974
-0.296991
-0.257994
-0.246982
-0.233983
-0.207020
-0.168988
-0.147985
-0.154967
-0.160019
-0.141968
-0.129991
-0.142990
-0.141003
-0.090993
-0.042006
-0.055970
-0.108988
-0.131977
-0.118978
-0.116991
-0.126982
-0.115970
-0.100984
-0.132999
-0.194986
-0.207020
-0.136973
-0.060000
-0.066982
-0.136008
-0.165014
-0.129991
-0.110009
-0.149972
-0.207985
-0.240965
-0.254986
-0.267985
-0.277975
-0.274002
-0.238013
-0.173983
-0.115005
-0.085998
-0.081968
-0.077994
-0.076008
-0.105979
-0.152980
-0.149972
-0.089972
-0.060965
-0.107001
-0.157010
-0.144011
-0.107001
-0.100019
-0.110009
-0.100984
-0.085998
-0.092015
-0.100984
-0.076008
-0.040019
-0.051996
-0.105014
-0.123974
-0.094967
-0.084011
-0.115005
-0.128969
-0.107001
-0.090993
-0.089972
-0.081968
-0.098997
-0.233018
-0.565998
-1.013983
-1.227020
-0.867020
-0.133964
0.338997
0.246982
-0.084976
-0.259016
-0.267985
-0.274967
-0.296991
-0.272980
-0.223992
-0.201968
-0.201003
-0.181987
-0.139016
-0.107966
-0.097975
-0.074986
-0.034002
-0.030993
-0.081003
-0.113018
-0.084976
-0.047001
-0.045979
-0.051996
-0.045979
-0.053983
-0.076973
-0.071012
-0.045979
-0.053983
-0.085998
-0.087985
-0.060965
-0.055970
-0.081968
-0.103992
-0.110974
-0.120965
-0.131012
-0.124995
-0.121987
-0.152980
-0.199981
-0.218997
-0.202990
-0.181987
-0.175005
-0.165979
-0.136008
-0.105979
-0.094967
-0.092015
-0.071012
-0.045979
-0.058978
-0.107966
-0.139981
-0.120965
-0.087020
-0.084011
-0.103992
-0.111996
-0.100984
-0.092015
-0.085998
-0.074986
-0.064995
-0.071012
-0.090993
-0.100019
-0.089972
-0.077994
-0.077994
-0.090993
-0.110009
-0.124995
-0.120965
-0.103992
-0.094002
-0.089007
-0.074986
-0.068969
-0.128969
-0.324011
-0.681003
-1.042990
-1.052015
-0.525014
0.160984
0.413018
0.141003
-0.207985
-0.319016
-0.287966
-0.282006
-0.287001
-0.249991
-0.201968
-0.181987
-0.175970
-0.157975
-0.136973
-0.124995
-0.107966
-0.084011
-0.071012
-0.074986
-0.076973
-0.064995
-0.053983
-0.051996
-0.051996
-0.050009
-0.048988
-0.053983
-0.063009
-0.066982
-0.060000
-0.055005
-0.072999
-0.103992
-0.120000
-0.121987
-0.131977
-0.136973
-0.121987
-0.107001
-0.113018
-0.126982
-0.141968
-0.167966
-0.209972
-0.246017
-0.243009
-0.202990
-0.170009
-0.163992
-0.145998
-0.097010
-0.058013
-0.063009
-0.097010
-0.131977
-0.149007
-0.137994
-0.118013
-0.116991
-0.124995
-0.115005
-0.102971
-0.115005
-0.132999
-0.128004
-0.111996
-0.110009
-0.113983
-0.103992
-0.090993
-0.095989
-0.110009
-0.113983
-0.110009
-0.110974
-0.118013
-0.118978
-0.110974
-0.100019
-0.095989
-0.094967
-0.090993
-0.100984
-0.167966
-0.371977
-0.781987
-1.225998
-1.250009
-0.642006
0.128004
0.405014
0.147020
-0.165979
-0.246017
-0.205998
-0.202990
-0.222971
-0.209007
-0.163992
-0.124995
-0.107966
-0.098997
-0.079981
-0.051996
-0.034967
-0.034002
-0.034002
-0.029007
-0.027020
-0.029972
-0.024011
-0.008004
-0.001987
-0.008969
-0.014986
-0.013964
-0.012999
-0.013964
-0.016973
-0.027020
-0.042971
-0.050009
-0.045979
-0.047966
-0.060000
-0.066982
-0.058978
-0.051996
-0.055005
-0.068004
-0.087985
-0.116991
-0.147020
-0.157975
-0.139981
-0.115970
-0.116991
-0.128969
-0.110009
-0.058978
-0.022990
-0.029972
-0.055970
-0.068969
-0.066982
-0.064995
-0.068969
-0.074986
-0.071012
-0.056991
-0.051996
-0.066017
-0.076008
-0.066982
-0.056991
-0.068004
-0.079981
-0.069991
-0.050009
-0.047966
-0.060000
-0.063974
-0.056991
-0.053983
-0.056991
-0.060000
-0.051996
-0.043992
-0.045979
-0.050009
-0.042006
-0.040019
-0.120965
-0.392980
-0.846982
-1.172980
-0.969991
-0.287001
0.301987
0.364030
0.082025
-0.131977
-0.170009
-0.170974
-0.186982
-0.168988
-0.113983
-0.068969
-0.053018
-0.053983
-0.048988
-0.025998
0.001987
0.014021
0.012999
0.014021
0.022025
0.032015
0.035989
0.032015
0.025033
0.014021
-0.004995
-0.019981
-0.011977
0.006017
0.011012
-0.003009
-0.019016
-0.027020
-0.032980
-0.040984
-0.045979
-0.045979
-0.045979
-0.048988
-0.050009
-0.047966
-0.055970
-0.089007
-0.133964
-0.162006
-0.154002
-0.126017
-0.102006
-0.094002
-0.087020
-0.055970
-0.004995
0.024011
0.004995
-0.032980
-0.045014
-0.035989
-0.037010
-0.043992
-0.040019
-0.034967
-0.042006
-0.043992
-0.029972
-0.021968
-0.038997
-0.061987
-0.066982
-0.050974
-0.032015
-0.022990
-0.024976
-0.029972
-0.029007
-0.021968
-0.011977
-0.008969
-0.017994
-0.030993
-0.037010
-0.032980
-0.024011
-0.016008
-0.032015
-0.147020
-0.458997
-0.927020
-1.222990
-0.969991
-0.252999
0.340019
0.382025
0.079981
-0.129991
-0.145998
-0.128004
-0.141003
-0.139016
-0.107001
-0.074986
-0.055005
-0.045979
-0.037975
-0.017994
0.009991
0.034002
0.046036
0.050009
0.051031
0.051996
0.055005
0.056991
0.058013
0.056991
0.051996
0.045014
0.040984
0.040019
0.038997
0.035989
0.030028
0.022025
0.017994
0.017994
0.019016
0.012999
0.001987
-0.008969
-0.016008
-0.021968
-0.030993
-0.058978
-0.100019
-0.123009
-0.107001
-0.073964
-0.058978
-0.058013
-0.040019
0.004030
0.038997
0.035989
0.006017
-0.017994
-0.022990
-0.019016
-0.014986
-0.013964
-0.017994
-0.021003
-0.019981
-0.019981
-0.019016
-0.013964
-0.016008
-0.029972
-0.040019
-0.032015
-0.022990
-0.027020
-0.030993
-0.019016
-0.011012
-0.017994
-0.024976
-0.024976
-0.021968
-0.013964
-0.003009
-0.006017
-0.019981
-0.021003
-0.035989
-0.201003
-0.621003
-1.107985
-1.206017
-0.692015
0.048023
0.415005
0.275989
-0.006017
-0.131012
-0.132999
-0.141968
-0.163992
-0.149972
-0.100984
-0.058978
-0.042006
-0.032980
-0.009991
0.017994
0.029007
0.025033
0.027020
0.038032
0.045014
0.048988
0.051031
0.051996
0.048988
0.043992
0.034002
0.022990
0.027985
0.046036
0.051996
0.034002
0.014986
0.008004
0.012999
0.021003
0.021003
0.006982
-0.003974
0.000000
0.001022
-0.021968
-0.055005
-0.077994
-0.097975
-0.118013
-0.123009
-0.111996
-0.107966
-0.108988
-0.087020
-0.037010
0.004995
0.006982
-0.021968
-0.051996
-0.053018
-0.032015
-0.021003
-0.032015
-0.040019
-0.027985
-0.024011
-0.042006
-0.045014
-0.013964
0.004995
-0.017994
-0.042971
-0.030993
-0.013964
-0.024011
-0.037010
-0.027985
-0.016973
-0.022990
-0.027985
-0.021968
-0.019981
-0.037975
-0.055970
-0.042006
-0.008969
0.000000
-0.055005
-0.246017
-0.634002
-1.029991
-1.000019
-0.402971
0.277010
0.471996
0.215989
-0.055005
-0.139016
-0.147985
-0.157010
-0.133964
-0.092980
-0.077994
-0.076973
-0.058978
-0.038997
-0.024976
0.004995
0.043992
0.056026
0.038032
0.025998
0.043027
0.071012
0.085033
0.082025
0.074021
0.068004
0.059035
0.048988
0.053018
0.063009
0.053983
0.032015
0.022025
0.032015
0.043027
0.038997
0.024011
0.012034
0.009026
0.012034
0.016008
0.017029
-0.004995
-0.058978
-0.105979
-0.098997
-0.053018
-0.021968
-0.037010
-0.063009
-0.043992
0.019016
0.061022
0.048988
0.024011
0.017994
0.017029
0.012999
0.009026
0.000000
-0.014986
-0.016973
-0.003974
0.004995
0.001022
-0.001987
-0.003974
-0.008004
-0.011977
-0.004995
0.011012
0.019981
0.012034
0.001987
0.004995
0.014986
0.012034
-0.003974
-0.016008
-0.011977
0.003009
0.019016
0.032015
0.021003
-0.064995
-0.290974
-0.664995
-1.032999
-1.055989
-0.543009
0.171996
0.492034
0.282006
-0.043992
-0.149972
-0.110009
-0.089972
-0.092980
-0.072999
-0.042006
-0.019981
0.006017
0.040019
0.063009
0.069991
0.072999
0.077994
0.082025
0.077029
0.071012
0.085998
0.119035
0.128004
0.102006
0.082990
0.098032
0.116991
0.110009
0.085998
0.066017
0.061022
0.074986
0.097010
0.092015
0.059035
0.040984
0.046036
0.040984
0.029007
0.046036
0.066982
0.037010
-0.022990
-0.048988
-0.040019
-0.040019
-0.047001
-0.037010
-0.014986
0.016008
0.056026
0.072999
0.051031
0.025033
0.021003
0.017994
0.012999
0.025033
0.045014
0.048988
0.038032
0.025998
0.014986
0.004030
-0.000965
-0.009991
-0.027985
-0.032980
0.000000
0.050009
0.064030
0.035989
0.009026
0.014986
0.035024
0.038032
0.022025
0.000000
-0.024011
-0.034967
-0.006982
0.042006
0.050009
-0.035989
-0.251977
-0.601987
-0.924976
-0.896991
-0.403992
0.179035
0.387020
0.214002
0.006982
-0.053983
-0.055005
-0.073964
-0.085998
-0.079016
-0.072999
-0.066017
-0.042971
-0.006017
0.034002
0.059035
0.051996
0.032015
0.038032
0.069991
0.092015
0.085998
0.074986
0.069991
0.050009
0.022025
0.027020
0.069026
0.103992
0.107001
0.098997
0.100984
0.094002
0.066982
0.038032
0.030993
0.048023
0.053018
0.022990
-0.016008
-0.022990
-0.004995
0.008004
0.001022
-0.032015
-0.071012
-0.066017
-0.009991
0.030993
0.024011
0.019016
0.053018
0.084011
0.071012
0.043027
0.034002
0.025033
-0.006982
-0.027020
0.003009
0.053983
0.071012
0.045014
0.008004
-0.011977
-0.009991
0.008004
0.025998
0.030028
0.022990
0.014986
0.019981
0.042006
0.056026
0.043992
0.025998
0.032015
0.045014
0.043992
0.043027
0.053018
0.055005
0.037010
0.024011
0.030993
-0.003974
-0.186982
-0.535005
-0.814967
-0.689972
-0.152015
0.353983
0.437994
0.210993
0.019981
-0.016008
0.006982
0.012999
-0.006017
-0.025998
-0.008004
0.043992
0.074021
0.061022
0.045014
0.056026
0.076008
0.085033
0.082025
0.087985
0.113983
0.139016
0.137029
0.119035
0.111031
0.113018
0.103992
0.090993
0.097010
0.116991
0.121022
0.098032
0.071012
0.063009
0.077029
0.095989
0.100019
0.085033
0.066982
0.060000
0.053018
0.046036
0.047001
0.043992
0.012999
-0.030993
-0.032980
0.025998
0.084011
0.084011
0.051996
0.055005
0.103027
0.149007
0.152980
0.119035
0.077994
0.055005
0.064030
0.092015
0.113983
0.115005
0.100019
0.084011
0.076008
0.082990
0.100019
0.119035
0.129026
0.121022
0.094002
0.082025
0.111996
0.149007
0.142025
0.111996
0.108023
0.111031
0.089007
0.072999
0.100984
0.145033
0.160984
0.150993
0.121022
0.014986
-0.264011
-0.669991
-0.895005
-0.608969
0.077994
0.606982
0.596991
0.270028
0.051996
0.038997
0.076008
0.076008
0.066017
0.069991
0.090028
0.116991
0.134986
0.141003
0.152980
0.167001
0.167001
0.163027
0.183009
0.217010
0.230009
0.212015
0.188004
0.176991
0.181022
0.194986
0.204011
0.194986
0.175005
0.173983
0.197029
0.210993
0.197029
0.173018
0.158032
0.147985
0.132034
0.116991
0.115005
0.121022
0.126982
0.131012
0.126982
0.108023
0.077994
0.051031
0.046036
0.069991
0.103027
0.113018
0.107001
0.123009
0.167001
0.189026
0.163992
0.128004
0.116026
0.121987
0.129026
0.129026
0.126982
0.124995
0.129026
0.141003
0.147020
0.145998
0.147020
0.154002
0.152015
0.142025
0.134986
0.142025
0.158997
0.175005
0.175005
0.163027
0.152015
0.147985
0.152980
0.167001
0.179035
0.168988
0.150028
0.139016
0.106036
-0.058978
-0.447020
-0.887966
-0.911977
-0.290974
0.496008
0.768988
0.489026
0.160984
0.085033
0.136008
0.124995
0.053018
0.025998
0.084011
0.158032
0.180000
0.173983
0.188004
0.207985
0.209007
0.210028
0.228988
0.239035
0.222006
0.204011
0.212015
0.231031
0.228988
0.207020
0.192999
0.199016
0.212015
0.210993
0.194021
0.176991
0.180000
0.189991
0.173018
0.142990
0.139981
0.152980
0.134986
0.111031
0.137029
0.184030
0.181022
0.132999
0.090993
0.068004
0.056991
0.064995
0.090993
0.110009
0.110009
0.105014
0.116991
0.139981
0.152980
0.137994
0.107001
0.095024
0.123009
0.163992
0.171996
0.137994
0.107001
0.108988
0.121987
0.115005
0.098997
0.094002
0.098997
0.100984
0.098032
0.095989
0.098997
0.098032
0.092980
0.100019
0.126017
0.142990
0.129991
0.113018
0.118013
0.132999
0.132034
0.121022
0.106036
0.035989
-0.196008
-0.601987
-0.935989
-0.810993
-0.173018
0.494986
0.677029
0.410009
0.116026
0.024011
0.042006
0.059035
0.076008
0.095989
0.103992
0.108023
0.124030
0.134986
0.137994
0.160019
0.204011
0.236026
0.236026
0.215989
0.196008
0.188004
0.192999
0.189991
0.178013
0.191012
0.236026
0.262025
0.236991
0.194021
0.175005
0.184995
0.199981
0.197029
0.178013
0.167001
0.175005
0.179035
0.154002
0.123009
0.119035
0.137994
0.149007
0.136008
0.108988
0.084011
0.077994
0.097010
0.121987
0.121022
0.103992
0.116991
0.166036
0.194986
0.176026
0.139016
0.119035
0.116026
0.124030
0.136008
0.132034
0.119035
0.128004
0.163992
0.183009
0.157010
0.119035
0.111031
0.126982
0.136008
0.132034
0.126982
0.129026
0.132999
0.136008
0.136008
0.131012
0.119035
0.108023
0.106036
0.115005
0.128004
0.134021
0.126017
0.092980
-0.003974
-0.254986
-0.660965
-0.917994
-0.630993
0.098032
0.640019
0.606017
0.265998
0.047001
0.025033
0.058013
0.069026
0.064995
0.061022
0.074986
0.106036
0.137994
0.158032
0.170009
0.183009
0.192999
0.189991
0.179035
0.179035
0.194021
0.205033
0.204011
0.205033
0.218032
0.220984
0.197994
0.171996
0.171031
0.181987
0.181022
0.167001
0.157010
0.158997
0.168023
0.171031
0.168023
0.160984
0.154002
0.141003
0.131012
0.126982
0.120000
0.100984
0.077994
0.060000
0.058013
0.085998
0.126017
0.142025
0.134986
0.147020
0.184030
0.202025
0.181022
0.154002
0.147985
0.150028
0.145998
0.147020
0.166036
0.180000
0.168023
0.150993
0.150028
0.150028
0.142990
0.147985
0.163027
0.155989
0.132999
0.129026
0.139016
0.136008
0.124995
0.132034
0.147985
0.150028
0.139016
0.132034
0.139981
0.150028
0.152015
0.149007
0.126017
-0.021968
-0.407966
-0.870993
-0.947001
-0.395989
0.377029
0.734021
0.540000
0.192034
0.034002
0.048988
0.082990
0.089007
0.098997
0.120000
0.136008
0.147985
0.165014
0.180000
0.186982
0.197994
0.215024
0.223992
0.218032
0.214002
0.222006
0.233018
0.236026
0.235005
0.233983
0.228023
0.222006
0.220984
0.218997
0.222006
0.233983
0.236991
0.215024
0.188004
0.178013
0.175005
0.175005
0.186017
0.196008
0.183009
0.158997
0.139981
0.123009
0.103027
0.089007
0.087985
0.103992
0.129026
0.142990
0.139981
0.144011
0.173018
0.205998
0.210993
0.184995
0.150028
0.131012
0.134986
0.154002
0.171031
0.176026
0.176991
0.179035
0.176026
0.162006
0.147020
0.141003
0.139016
0.141003
0.149007
0.158032
0.165014
0.167001
0.165014
0.160019
0.157010
0.160984
0.168023
0.166036
0.157010
0.147985
0.154002
0.180000
0.192999
0.124995
-0.092980
-0.494986
-0.938997
-1.024995
-0.465014
0.382990
0.797994
0.583027
0.214002
0.081003
0.111031
0.121987
0.103027
0.102006
0.121022
0.147020
0.176026
0.204011
0.222006
0.228988
0.236026
0.254021
0.270028
0.267020
0.254986
0.261003
0.280019
0.285014
0.275989
0.270993
0.267985
0.254986
0.248004
0.259981
0.267985
0.252034
0.231031
0.226036
0.231996
0.236026
0.231031
0.215989
0.205998
0.204011
0.197029
0.186017
0.186017
0.181022
0.145033
0.103027
0.110009
0.163027
0.204011
0.207020
0.202990
0.230009
0.270993
0.278997
0.240000
0.189026
0.162006
0.168023
0.192999
0.217010
0.222006
0.197029
0.160984
0.152015
0.168023
0.176026
0.171996
0.186982
0.220019
0.233983
0.220019
0.207020
0.205998
0.204011
0.194021
0.189026
0.192034
0.183009
0.157010
0.144011
0.162006
0.186017
0.196008
0.202025
0.181987
0.038032
-0.327020
-0.840965
-1.127966
-0.762006
0.120000
0.776991
0.736008
0.327020
0.085033
0.072999
0.087985
0.071012
0.074986
0.100019
0.126017
0.152980
0.181987
0.205998
0.220984
0.231996
0.240000
0.241987
0.239035
0.244030
0.259016
0.265998
0.257029
0.244030
0.244030
0.254986
0.265033
0.259981
0.243009
0.233018
0.241987
0.257994
0.254986
0.235005
0.222006
0.226036
0.228023
0.212980
0.191012
0.180000
0.183009
0.189026
0.186017
0.171996
0.152980
0.132034
0.110009
0.107001
0.137029
0.181987
0.197994
0.184995
0.196008
0.246017
0.275024
0.244995
0.196008
0.176026
0.176991
0.176991
0.175005
0.168988
0.162006
0.173983
0.199981
0.210028
0.197029
0.188004
0.192999
0.189991
0.163992
0.139016
0.144011
0.176026
0.199016
0.192034
0.173983
0.168023
0.173983
0.175005
0.160984
0.145998
0.150028
0.171996
0.181022
0.124995
-0.074986
-0.491012
-0.997975
-1.169972
-0.673964
0.189991
0.705014
0.583992
0.220984
0.043992
0.047001
0.053018
0.029007
0.027020
0.056991
0.098997
0.136008
0.157010
0.167001
0.176991
0.191012
0.201003
0.202025
0.201003
0.214002
0.240000
0.257994
0.249991
0.226036
0.218997
0.233983
0.248004
0.233983
0.209007
0.202990
0.212015
0.202990
0.168023
0.139016
0.134986
0.142025
0.145998
0.155024
0.167001
0.162006
0.139981
0.132034
0.149007
0.154002
0.119035
0.056991
0.004995
-0.013964
0.009026
0.061022
0.103027
0.108023
0.106036
0.137994
0.181022
0.186982
0.155024
0.126982
0.121987
0.124995
0.124995
0.128004
0.132034
0.134021
0.134986
0.136008
0.134021
0.131012
0.131012
0.131012
0.129026
0.128004
0.126982
0.121022
0.115005
0.115005
0.121987
0.128004
0.132034
0.134986
0.136008
0.126982
0.119035
0.132034
0.147020
0.111996
-0.022990
-0.345014
-0.898013
-1.357010
-1.159016
-0.285979
0.509007
0.624011
0.291996
0.045014
0.008004
0.014986
-0.003009
0.004995
0.045014
0.082025
0.100984
0.119035
0.147020
0.173018
0.184995
0.189026
0.199016
0.214002
0.225014
0.225014
0.223992
0.228988
0.231996
0.220019
0.205033
0.202990
0.207985
0.212015
0.218997
0.223027
0.212980
0.194021
0.183009
0.184030
0.197029
0.212015
0.207020
0.176991
0.150993
0.147020
0.152015
0.155024
0.160984
0.171996
0.170009
0.134021
0.069991
0.024011
0.035024
0.082025
0.132034
0.180000
0.228023
0.252999
0.244030
0.220019
0.201003
0.184030
0.171031
0.175005
0.199016
0.218032
0.197029
0.142990
0.116991
0.142025
0.173018
0.163992
0.131012
0.124995
0.171996
0.176991
0.081003
0.110009
0.286036
-0.030993
-0.995989
-1.446017
-0.752015
-0.045014
-0.081968
-0.055005
0.384011
0.502990
0.233983
0.175005
0.220984
-0.079016
-0.548969
-0.697010
-0.316973
0.382025
0.828988
0.588988
-0.043992
-0.385998
-0.225979
0.060000
0.134986
0.051996
0.047001
0.215989
0.377994
0.265033
-0.064995
-0.259016
-0.230009
-0.252999
-0.335989
-0.128969
0.322990
0.504011
0.283027
0.077029
0.006017
-0.196008
-0.366017
-0.019981
0.681003
1.050028
0.859016
0.434021
0.058013
-0.137994
-0.084011
0.107001
0.233983
0.286036
0.366982
0.470009
0.479035
0.327020
0.087020
-0.063009
-0.040984
0.056991
0.131012
0.184030
0.207020
0.166036
0.105014
0.079016
0.082025
0.115005
0.171996
0.179035
0.121022
0.108988
0.168023
0.191012
0.157010
0.145998
0.165014
0.168023
0.163992
0.173018
0.179035
0.171996
0.162006
0.154002
0.144011
0.141003
0.150028
0.157010
0.154002
0.147985
0.149007
0.155989
0.155024
0.145033
0.141003
0.147020
0.147985
0.137994
0.134986
0.147020
0.157010
0.149007
0.145033
0.155024
0.139981
0.012034
-0.329007
-0.838013
-1.178997
-0.968004
-0.280019
0.332980
0.468023
0.257994
0.053983
-0.001987
0.012999
0.012999
-0.003009
0.001987
0.030028
0.063009
0.089007
0.108023
0.123009
0.147020
0.178013
0.192999
0.178013
0.157010
0.158997
0.176991
0.189991
0.192034
0.189026
0.184030
0.181987
0.189026
0.197029
0.196008
0.184995
0.171031
0.150993
0.134021
0.132999
0.142025
0.142990
0.132034
0.119035
0.108023
0.100019
0.095989
0.092980
0.094002
0.106036
0.121987
0.128004
0.105014
0.059035
0.012999
-0.006017
0.014986
0.059035
0.092015
0.092015
0.077994
0.090028
0.137029
0.173983
0.160984
0.119035
0.092980
0.098997
0.118013
0.126982
0.121987
0.116026
0.111996
0.110009
0.111996
0.123009
0.128004
0.108988
0.082990
0.082025
0.103027
0.111031
0.097010
0.087985
0.098997
0.105014
0.081003
0.056991
0.068004
0.095024
0.098997
0.098997
0.124030
0.147985
0.124030
0.019981
-0.238978
-0.718978
-1.198978
-1.196991
-0.551012
0.223992
0.507985
0.298013
0.043992
-0.017994
-0.003974
-0.027020
-0.051996
-0.034002
0.003009
0.034002
0.059035
0.079016
0.090028
0.102006
0.119035
0.137029
0.145033
0.145998
0.152015
0.162006
0.167001
0.168988
0.173983
0.175005
0.160019
0.139016
0.131012
0.134986
0.137029
0.128004
0.113018
0.103992
0.108988
0.116026
0.106036
0.085033
0.069991
0.069026
0.066982
0.061987
0.063009
0.074021
0.081003
0.069991
0.050009
0.038032
0.030993
0.014021
-0.016008
-0.034967
-0.019016
0.021003
0.051031
0.048988
0.040984
0.069026
0.121022
0.137029
0.098997
0.053983
0.043992
0.051031
0.053983
0.061022
0.074021
0.077994
0.074986
0.074021
0.069026
0.056026
0.055005
0.069026
0.082025
0.081003
0.069026
0.053018
0.038032
0.037010
0.048988
0.060000
0.053983
0.043992
0.043992
0.048988
0.048988
0.053018
0.061022
0.037010
-0.095989
-0.450993
-1.018978
-1.401968
-1.078978
-0.173983
0.512980
0.502025
0.147985
-0.040019
-0.032980
-0.027020
-0.061987
-0.068969
-0.038997
-0.001987
0.027985
0.048023
0.056991
0.063009
0.077029
0.094002
0.107001
0.116991
0.124030
0.123009
0.119035
0.118013
0.116991
0.107001
0.097010
0.098032
0.103992
0.100984
0.087020
0.069026
0.056026
0.058013
0.069026
0.066017
0.048023
0.032015
0.024011
0.011012
-0.003974
0.003009
0.025033
0.025998
0.001022
-0.012999
0.003009
0.019981
0.006017
-0.034002
-0.073964
-0.092015
-0.081003
-0.051996
-0.027985
-0.027985
-0.037975
-0.027985
0.009991
0.048988
0.066982
0.056026
0.022025
-0.013964
-0.024011
-0.009991
0.003009
0.006017
0.012034
0.021003
0.022990
0.016008
0.004030
-0.006017
-0.008969
0.000000
0.006982
0.004030
0.001022
0.004995
0.004995
-0.003974
-0.008969
-0.003009
0.003009
-0.001987
-0.016008
-0.027020
-0.021003
-0.006017
-0.021968
-0.149972
-0.493964
-1.047020
-1.472015
-1.273964
-0.449007
0.330028
0.480000
0.176026
-0.068004
-0.108988
-0.110009
-0.136008
-0.134986
-0.102971
-0.073964
-0.045979
-0.009991
0.022990
0.038032
0.042006
0.050009
0.066017
0.077029
0.076008
0.072999
0.077994
0.092980
0.110009
0.106036
0.082990
0.072999
0.090993
0.108988
0.094002
0.058013
0.038997
0.045014
0.051996
0.042006
0.035024
0.047001
0.056026
0.038997
0.017029
0.017029
0.027985
0.025998
0.019016
0.024011
0.025033
-0.006982
-0.063974
-0.097010
-0.087020
-0.064995
-0.047001
-0.022990
-0.004995
-0.012999
-0.017994
0.019016
0.074021
0.095989
0.077029
0.046036
0.025033
0.019981
0.024011
0.025998
0.029007
0.038032
0.045014
0.048023
0.048023
0.043992
0.034002
0.025033
0.030028
0.043992
0.056026
0.059035
0.050009
0.035024
0.025998
0.025033
0.019981
0.012999
0.021003
0.045014
0.059035
0.048988
0.019981
-0.060000
-0.311012
-0.830974
-1.404976
-1.487966
-0.828988
0.056026
0.437029
0.244030
-0.053983
-0.168988
-0.167966
-0.160984
-0.149007
-0.124995
-0.094002
-0.061987
-0.027985
0.001022
0.025033
0.046036
0.064995
0.082990
0.098032
0.106036
0.113983
0.126982
0.136008
0.129991
0.118013
0.116991
0.126017
0.134021
0.136008
0.134986
0.129026
0.120000
0.111996
0.105014
0.090993
0.077994
0.074986
0.074021
0.063009
0.051996
0.048988
0.055005
0.061987
0.069991
0.072034
0.066982
0.051996
0.022990
-0.014986
-0.042006
-0.042006
-0.017994
0.012034
0.025998
0.022025
0.030993
0.071012
0.118013
0.128004
0.100984
0.074021
0.066982
0.069026
0.071012
0.072999
0.074021
0.069991
0.071012
0.082990
0.090028
0.074986
0.051996
0.038997
0.042006
0.047001
0.053018
0.068004
0.079981
0.069026
0.043027
0.037010
0.066017
0.094002
0.082025
0.045014
0.032015
0.051031
0.038997
-0.107001
-0.488004
-1.065014
-1.448004
-1.135005
-0.217010
0.520019
0.533983
0.139016
-0.111996
-0.141968
-0.145998
-0.160019
-0.121987
-0.047001
-0.000965
-0.001987
-0.012999
0.011012
0.066982
0.115005
0.134021
0.132999
0.121022
0.092015
0.063009
0.071012
0.121987
0.167001
0.160984
0.121022
0.092980
0.095989
0.107001
0.107001
0.092980
0.074021
0.066982
0.077994
0.095989
0.100984
0.087020
0.059035
0.040019
0.051996
0.081003
0.087985
0.074021
0.060000
0.043027
0.009026
-0.022990
-0.035989
-0.047966
-0.068004
-0.063009
-0.016973
0.025998
0.019981
-0.006982
0.009991
0.082025
0.139016
0.116026
0.042006
0.004030
0.034002
0.072034
0.066017
0.038997
0.029007
0.032015
0.035989
0.040019
0.048023
0.053983
0.051996
0.051031
0.060000
0.069991
0.061987
0.046036
0.046036
0.055005
0.051996
0.048023
0.055005
0.063009
0.066017
0.068004
0.055005
0.014021
-0.066017
-0.290974
-0.770009
-1.263974
-1.209991
-0.455989
0.374021
0.598013
0.272015
-0.087020
-0.199981
-0.157010
-0.120000
-0.131012
-0.131977
-0.081968
-0.021003
0.012034
0.032980
0.053983
0.059035
0.056026
0.068004
0.090028
0.103992
0.113983
0.115005
0.100019
0.090028
0.116026
0.152980
0.144011
0.095989
0.064030
0.076008
0.110009
0.132999
0.126982
0.103992
0.092015
0.089007
0.077994
0.061022
0.053983
0.046036
0.025998
0.019981
0.053983
0.095989
0.103992
0.077029
0.027020
-0.042971
-0.097975
-0.081003
-0.016973
0.009026
-0.009991
0.000000
0.058013
0.098032
0.087020
0.074021
0.089007
0.100019
0.079016
0.048988
0.034002
0.029007
0.022990
0.027020
0.038032
0.042006
0.035989
0.038032
0.053018
0.074021
0.089007
0.087020
0.072034
0.048023
0.014986
-0.006982
0.019981
0.094002
0.136008
0.087985
0.006982
-0.004995
0.069026
0.129991
0.084011
-0.079016
-0.382990
-0.864011
-1.274986
-1.107985
-0.290009
0.486982
0.596991
0.231031
-0.066982
-0.141968
-0.142990
-0.126017
-0.072999
-0.032980
-0.030993
-0.014986
0.035989
0.079981
0.098032
0.108988
0.108988
0.092015
0.085033
0.108988
0.137029
0.141003
0.134986
0.142025
0.152980
0.155024
0.142990
0.124995
0.123009
0.136008
0.121987
0.066982
0.040019
0.079981
0.120000
0.108988
0.089007
0.089007
0.082990
0.068004
0.072999
0.087020
0.079016
0.064030
0.069991
0.074986
0.032980
-0.038997
-0.074986
-0.043992
0.014021
0.035989
0.012999
0.004995
0.061022
0.142990
0.158997
0.097010
0.045014
0.051996
0.069991
0.066982
0.068004
0.077994
0.087020
0.110009
0.132034
0.097010
0.024011
-0.008004
0.009991
0.030993
0.048988
0.076008
0.085033
0.058013
0.030028
0.037010
0.072999
0.092980
0.066017
0.017029
-0.001987
0.030993
0.095989
0.126982
0.032015
-0.243009
-0.668004
-1.084995
-1.172015
-0.684976
0.103992
0.561003
0.441003
0.095989
-0.110974
-0.142990
-0.089007
-0.032980
-0.053983
-0.115005
-0.100019
-0.003974
0.063009
0.043992
-0.000965
0.016008
0.103027
0.163992
0.142990
0.097010
0.094002
0.113018
0.116991
0.116991
0.126017
0.120000
0.102006
0.107001
0.139981
0.149007
0.094002
0.014986
-0.019981
0.006017
0.066982
0.128004
0.129991
0.042006
-0.045979
-0.021003
0.059035
0.064030
0.019981
0.016008
0.022025
-0.030993
-0.102971
-0.110974
-0.050974
0.016008
0.038032
0.014986
-0.003974
0.014986
0.051996
0.066982
0.048988
0.024011
0.017029
0.027985
0.040019
0.043027
0.037010
0.016008
-0.009991
-0.013964
0.009026
0.012999
-0.021968
-0.040019
0.014021
0.087985
0.092980
0.035989
-0.000965
0.000000
-0.001987
-0.013964
-0.000965
0.021003
0.009026
-0.029007
-0.038997
-0.012999
0.006982
-0.037010
-0.264011
-0.754967
-1.271012
-1.287020
-0.604995
0.240000
0.544030
0.262990
-0.092015
-0.204011
-0.186017
-0.196008
-0.205998
-0.165014
-0.102006
-0.060000
-0.047001
-0.047966
-0.034002
-0.004995
0.016008
0.014986
0.004995
0.001987
0.019981
0.063009
0.103027
0.106036
0.076008
0.045014
0.032015
0.034002
0.040984
0.048023
0.055005
0.046036
0.014021
-0.008004
0.001987
0.014021
0.012999
0.035024
0.072999
0.063009
-0.004995
-0.051996
-0.035989
0.001022
-0.008004
-0.076008
-0.141968
-0.149007
-0.110009
-0.066017
-0.032015
-0.021968
-0.045014
-0.055005
-0.014986
0.032015
0.035024
0.011012
-0.014986
-0.047001
-0.066982
-0.047966
-0.014986
-0.012999
-0.029007
-0.024976
-0.006017
-0.008004
-0.025998
-0.027985
-0.019016
-0.022990
-0.032980
-0.025998
-0.016008
-0.027020
-0.045979
-0.050009
-0.045979
-0.040984
-0.032015
-0.029007
-0.027020
-0.009991
0.009991
0.004995
-0.060000
-0.295005
-0.783009
-1.256991
-1.177010
-0.418013
0.384011
0.554986
0.178013
-0.188004
-0.267985
-0.204976
-0.165979
-0.155989
-0.145998
-0.136973
-0.134986
-0.121987
-0.081968
-0.027020
0.009026
0.008004
-0.003009
0.009026
0.037010
0.047001
0.032980
0.022990
0.030028
0.035989
0.030993
0.030028
0.042006
0.051031
0.037010
0.012999
0.009026
0.019981
0.017029
-0.001987
-0.006982
0.001987
-0.011977
-0.042006
-0.042006
-0.016008
-0.012999
-0.032980
-0.038997
-0.032015
-0.042971
-0.085998
-0.147985
-0.188969
-0.162971
-0.084976
-0.034002
-0.038997
-0.037010
0.009991
0.038997
0.008004
-0.032980
-0.040984
-0.042971
-0.061987
-0.066982
-0.040019
-0.008004
-0.011012
-0.034967
-0.040984
-0.019981
-0.006017
-0.008004
-0.012999
-0.027020
-0.060000
-0.073964
-0.050974
-0.029007
-0.037010
-0.037975
-0.011012
0.004995
-0.014986
-0.040984
-0.050009
-0.063009
-0.073964
-0.053983
-0.068969
-0.288988
-0.755989
-1.143009
-0.971012
-0.236991
0.432034
0.499981
0.129026
-0.188004
-0.278997
-0.274967
-0.264976
-0.240000
-0.202990
-0.163992
-0.128004
-0.097010
-0.072999
-0.050009
-0.022990
0.003009
0.001022
-0.037975
-0.073964
-0.055005
0.004030
0.038997
0.030028
0.012034
0.001987
-0.012999
-0.019981
0.006017
0.035024
0.009026
-0.063974
-0.110974
-0.090993
-0.037975
-0.001987
-0.006017
-0.045014
-0.076008
-0.053983
-0.004995
-0.000965
-0.061987
-0.124995
-0.129991
-0.087020
-0.058978
-0.094002
-0.157975
-0.175970
-0.136008
-0.107001
-0.126017
-0.136008
-0.087020
-0.016008
0.009026
-0.016973
-0.042006
-0.043992
-0.051996
-0.081968
-0.102006
-0.087985
-0.063974
-0.047966
-0.024976
0.000000
-0.011977
-0.055970
-0.073964
-0.048988
-0.025998
-0.021003
-0.011012
-0.006017
-0.034002
-0.066017
-0.055970
-0.024011
-0.027985
-0.063974
-0.073964
-0.038997
-0.006017
-0.012999
-0.035989
-0.060965
-0.205998
-0.595005
-1.015005
-0.979981
-0.358978
0.317994
0.479035
0.171031
-0.162006
-0.290009
-0.296991
-0.288988
-0.272980
-0.240000
-0.202990
-0.162971
-0.123974
-0.090993
-0.058013
-0.027020
-0.021003
-0.040019
-0.034967
0.012034
0.047001
0.024011
-0.022990
-0.045014
-0.032015
-0.000965
0.032980
0.042006
0.014986
-0.021003
-0.034002
-0.021003
-0.006982
-0.004995
-0.017994
-0.035989
-0.037010
-0.027020
-0.037975
-0.066982
-0.068969
-0.043992
-0.038997
-0.066017
-0.094002
-0.097975
-0.087020
-0.082990
-0.110009
-0.162971
-0.197994
-0.176991
-0.123009
-0.084011
-0.061987
-0.025998
0.019016
0.027985
-0.008004
-0.048988
-0.063974
-0.061987
-0.058013
-0.061987
-0.069991
-0.063009
-0.030993
-0.003974
-0.011977
-0.034967
-0.042971
-0.035989
-0.027985
-0.021968
-0.021003
-0.025998
-0.027020
-0.022990
-0.014986
-0.001987
0.009026
0.001022
-0.024011
-0.042971
-0.037010
-0.008004
0.021003
0.022990
-0.053018
-0.311977
-0.770974
-1.117975
-0.893018
-0.115005
0.567020
0.611012
0.184995
-0.188004
-0.293018
-0.270993
-0.264976
-0.269007
-0.240965
-0.178978
-0.113983
-0.077994
-0.066982
-0.056991
-0.034967
-0.008004
0.012034
0.019981
0.019016
0.019016
0.025033
0.025033
0.019981
0.027020
0.048988
0.061987
0.053983
0.040019
0.035989
0.032980
0.012999
-0.013964
-0.021003
-0.004995
0.009991
0.004030
-0.008004
-0.006017
0.001022
-0.001987
-0.012999
-0.021003
-0.032980
-0.050009
-0.063009
-0.061987
-0.053983
-0.053018
-0.073964
-0.116991
-0.152980
-0.139981
-0.094002
-0.076008
-0.090993
-0.076973
-0.021968
0.014021
0.004995
-0.016008
-0.027020
-0.034002
-0.042971
-0.050009
-0.050974
-0.045979
-0.040984
-0.037975
-0.027985
-0.019981
-0.034002
-0.055005
-0.040984
0.004995
0.025033
-0.004995
-0.037975
-0.030993
-0.004995
-0.004995
-0.025998
-0.042971
-0.050009
-0.047966
-0.040984
-0.042971
-0.076973
-0.209007
-0.551012
-1.015005
-1.133983
-0.552999
0.317994
0.687985
0.377994
-0.092015
-0.296991
-0.283992
-0.243974
-0.233983
-0.225979
-0.197994
-0.157010
-0.118013
-0.089007
-0.058978
-0.027985
-0.012999
-0.019981
-0.021003
-0.000965
0.022990
0.029007
0.012999
-0.001987
0.003009
0.017994
0.022025
0.019016
0.019981
0.019016
0.009991
-0.000965
-0.013964
-0.027020
-0.025998
-0.013964
-0.004995
-0.000965
0.003009
-0.012999
-0.047001
-0.068004
-0.058013
-0.042006
-0.042971
-0.060000
-0.074986
-0.077994
-0.081003
-0.107001
-0.149007
-0.173018
-0.163992
-0.142990
-0.136008
-0.134986
-0.107001
-0.050009
-0.006982
-0.003009
-0.024976
-0.050009
-0.068004
-0.074986
-0.071012
-0.061987
-0.051996
-0.040984
-0.038997
-0.045014
-0.047001
-0.042006
-0.037975
-0.034967
-0.034002
-0.037975
-0.045979
-0.043992
-0.034002
-0.034002
-0.040984
-0.035989
-0.024011
-0.029972
-0.048988
-0.047966
-0.035989
-0.076973
-0.241987
-0.604995
-1.104976
-1.347985
-0.895970
0.012999
0.559981
0.377029
-0.066982
-0.274002
-0.269972
-0.251977
-0.240965
-0.204011
-0.168988
-0.147985
-0.115005
-0.073964
-0.050009
-0.042971
-0.034002
-0.022990
-0.013964
-0.003009
0.011012
0.014021
0.009026
0.012999
0.019981
0.017029
0.012999
0.022025
0.030028
0.016008
-0.004995
-0.009991
-0.001987
0.004030
0.003009
-0.000965
-0.008969
-0.013964
-0.013964
-0.016008
-0.025998
-0.034002
-0.037975
-0.042971
-0.045979
-0.035989
-0.022990
-0.037975
-0.090993
-0.152015
-0.175970
-0.142990
-0.081968
-0.048988
-0.063009
-0.072999
-0.037975
0.009026
0.016008
-0.004995
-0.022990
-0.038997
-0.053018
-0.050974
-0.032980
-0.019981
-0.021003
-0.027985
-0.029007
-0.029007
-0.029972
-0.029007
-0.021003
-0.011977
-0.013964
-0.019981
-0.016973
-0.008969
-0.014986
-0.029007
-0.027985
-0.013964
-0.014986
-0.029007
-0.024011
-0.000965
-0.000965
-0.076973
-0.332980
-0.825979
-1.268969
-1.122971
-0.298013
0.523027
0.664030
0.240000
-0.170974
-0.296991
-0.278997
-0.264976
-0.248004
-0.199981
-0.149972
-0.123974
-0.107966
-0.081003
-0.047001
-0.019981
-0.004995
0.001987
0.001987
-0.006017
-0.016973
-0.012999
0.014986
0.048023
0.063009
0.058013
0.037010
0.014021
0.006017
0.009026
0.000000
-0.019981
-0.017994
0.009991
0.022990
0.004995
-0.019016
-0.027020
-0.025998
-0.024011
-0.019981
-0.016008
-0.019981
-0.029972
-0.037010
-0.045014
-0.072999
-0.131012
-0.180965
-0.173018
-0.110974
-0.063009
-0.063974
-0.072999
-0.040019
0.016008
0.045014
0.035024
0.000000
-0.034002
-0.047966
-0.037975
-0.024011
-0.021968
-0.016008
0.012999
0.046036
0.050009
0.022990
-0.001987
-0.008969
-0.008969
-0.012999
-0.019016
-0.012999
0.001022
0.008004
0.004995
0.006982
0.019981
0.027985
0.012999
-0.016008
-0.027020
-0.019981
-0.030993
-0.115005
-0.390993
-0.922990
-1.412980
-1.294967
-0.478013
0.342006
0.501003
0.137029
-0.186982
-0.254986
-0.222971
-0.217010
-0.209972
-0.165979
-0.111996
-0.079016
-0.063009
-0.042006
-0.016008
-0.003974
-0.003009
0.003009
0.021003
0.038997
0.047001
0.046036
0.043992
0.048988
0.053983
0.047001
0.038032
0.045014
0.064030
0.064995
0.042006
0.019981
0.022025
0.035024
0.038032
0.027020
0.017029
0.012999
0.011012
0.004995
0.004995
0.014986
0.024011
0.009991
-0.027985
-0.068004
-0.100984
-0.124995
-0.113018
-0.051996
0.006017
0.001987
-0.030993
-0.009991
0.056026
0.084011
0.056026
0.024011
0.016008
0.014986
0.009991
0.004995
0.001022
0.000000
0.008004
0.017029
0.017994
0.009991
0.003009
0.004995
0.012999
0.017994
0.019016
0.024011
0.034002
0.037010
0.030993
0.021003
0.014986
0.014986
0.022025
0.030993
0.038032
0.038032
0.011012
-0.120000
-0.468988
-0.981968
-1.276008
-0.950009
-0.147020
0.473983
0.492999
0.150993
-0.107966
-0.167001
-0.160019
-0.154002
-0.128004
-0.090993
-0.063974
-0.040984
-0.016008
-0.003974
0.004995
0.029007
0.059035
0.074986
0.082025
0.085998
0.074021
0.051996
0.051031
0.082025
0.107001
0.103027
0.087020
0.079016
0.079981
0.082990
0.089007
0.092015
0.085998
0.074021
0.069026
0.061987
0.042006
0.019016
0.019981
0.040984
0.051996
0.042006
0.030993
0.027985
0.009026
-0.034967
-0.073964
-0.073964
-0.034002
0.012999
0.030028
0.017994
0.019981
0.058013
0.094002
0.087020
0.066017
0.069026
0.074986
0.060000
0.045014
0.053983
0.072034
0.079016
0.069991
0.060000
0.064030
0.077994
0.082990
0.076008
0.072999
0.079016
0.077994
0.064995
0.060000
0.072999
0.090993
0.095989
0.090993
0.089007
0.085033
0.072999
0.068004
0.084011
0.090028
-0.009991
-0.340984
-0.867020
-1.216973
-0.943992
-0.115970
0.604995
0.700019
0.342006
0.027985
-0.050009
-0.027985
-0.017994
-0.008004
0.019016
0.038032
0.042006
0.050009
0.077029
0.110009
0.132034
0.144011
0.160984
0.175005
0.175005
0.165014
0.165014
0.173018
0.173983
0.168988
0.171031
0.179035
0.179035
0.171996
0.171996
0.171996
0.160019
0.142025
0.136008
0.139981
0.145998
0.139981
0.126982
0.124995
0.134021
0.129026
0.102006
0.089007
0.108023
0.111996
0.055005
-0.016008
-0.008004
0.084011
0.147985
0.116991
0.076008
0.120000
0.192999
0.189991
0.126017
0.087020
0.100019
0.124995
0.116026
0.063009
0.019981
0.038997
0.090028
0.119035
0.129026
0.141003
0.132034
0.095989
0.074021
0.089007
0.111031
0.116991
0.115005
0.108023
0.090028
0.072999
0.076008
0.085998
0.084011
0.079016
0.087985
0.108988
0.118013
0.064995
-0.126017
-0.520984
-1.018978
-1.219016
-0.744011
0.154002
0.710009
0.565998
0.126982
-0.111996
-0.115005
-0.066017
-0.042006
-0.037975
-0.034002
-0.003974
0.053983
0.100019
0.113018
0.115005
0.134986
0.166036
0.175005
0.160019
0.150993
0.168988
0.189991
0.191012
0.181987
0.179035
0.179035
0.170009
0.155989
0.150993
0.162006
0.168988
0.157010
0.137994
0.137029
0.150028
0.152015
0.139981
0.132034
0.137029
0.136008
0.115005
0.092015
0.090993
0.094002
0.056026
-0.009991
-0.037975
0.001987
0.060000
0.084011
0.087020
0.116026
0.167001
0.191012
0.163992
0.123009
0.103027
0.090028
0.071012
0.064995
0.089007
0.120000
0.129991
0.123009
0.113018
0.095989
0.060000
0.000000
-0.058013
-0.058978
0.027020
0.128004
0.139981
0.087985
0.066982
0.085998
0.090993
0.085998
0.098032
0.102006
0.082990
0.071012
0.077029
0.072999
0.001987
-0.253964
-0.726982
-1.099016
-0.890974
-0.137994
0.492034
0.526036
0.210028
-0.003974
-0.047001
-0.076008
-0.102971
-0.060965
0.006017
0.014021
-0.008969
0.012034
0.058013
0.069026
0.066017
0.107001
0.170009
0.186017
0.145033
0.100019
0.089007
0.108988
0.150993
0.189991
0.189026
0.152980
0.132034
0.142025
0.142990
0.124995
0.106036
0.089007
0.079981
0.100984
0.126017
0.108988
0.064030
0.050009
0.072034
0.092980
0.094002
0.072999
0.021003
-0.042006
-0.071977
-0.045014
0.011012
0.048988
0.048023
0.027020
0.025033
0.060000
0.103027
0.113018
0.092015
0.066017
0.048988
0.040984
0.042006
0.048023
0.056026
0.066982
0.081003
0.085033
0.076008
0.056026
0.038997
0.038997
0.061022
0.082025
0.082025
0.063009
0.042006
0.035024
0.053018
0.090028
0.108988
0.085998
0.048023
0.035989
0.053983
0.076008
0.084011
0.042006
-0.142990
-0.535970
-0.976008
-1.041003
-0.486982
0.287001
0.596026
0.327985
-0.006982
-0.068004
-0.021003
-0.060000
-0.113018
-0.081003
-0.017994
0.011012
0.025033
0.043027
0.048988
0.053983
0.082990
0.121022
0.129026
0.103992
0.081003
0.095024
0.139981
0.163992
0.139981
0.113018
0.128004
0.155024
0.139981
0.097010
0.081003
0.107001
0.137994
0.132034
0.095024
0.077029
0.111996
0.150993
0.116026
0.043992
0.037010
0.085998
0.095989
0.064995
0.051031
0.042006
0.006982
-0.008969
0.022025
0.035024
-0.008004
-0.034967
0.021003
0.110009
0.141003
0.108988
0.072034
0.061987
0.061987
0.051031
0.027985
0.011012
0.011012
0.022025
0.037010
0.063009
0.095989
0.108988
0.077994
0.025033
-0.006017
0.008004
0.038032
0.047001
0.032980
0.032015
0.051031
0.056991
0.037010
0.022990
0.038997
0.063009
0.071012
0.077994
0.081003
-0.019016
-0.366017
-0.887001
-1.120984
-0.672999
0.157010
0.627020
0.471031
0.103992
-0.071977
-0.073964
-0.063009
-0.073964
-0.084011
-0.090993
-0.081003
-0.038997
0.012999
0.047001
0.061022
0.063009
0.069026
0.087985
0.089007
0.060000
0.058013
0.120000
0.179035
0.171031
0.139981
0.145998
0.157010
0.121987
0.076008
0.071012
0.095989
0.113983
0.115005
0.102006
0.076008
0.060000
0.069991
0.087985
0.092980
0.085033
0.061022
0.030993
0.014986
0.016008
0.012999
-0.001987
-0.008969
-0.000965
0.006017
-0.000965
0.001022
0.030028
0.063009
0.072034
0.064995
0.056026
0.034002
0.006982
0.014021
0.046036
0.037010
-0.014986
-0.024976
0.030028
0.072034
0.051996
0.014986
0.006982
0.016008
0.029007
0.053983
0.069026
0.050009
0.038032
0.074986
0.100984
0.035989
-0.051996
-0.037010
0.060000
0.111031
0.094002
0.082990
0.077994
-0.035989
-0.355970
-0.794986
-1.015970
-0.692980
0.030028
0.554986
0.502025
0.137029
-0.084976
-0.089972
-0.060000
-0.076008
-0.100019
-0.105979
-0.076973
-0.019981
0.022990
0.032980
0.037010
0.058013
0.094002
0.116991
0.110009
0.090993
0.089007
0.095989
0.090993
0.079981
0.072999
0.082025
0.126017
0.180000
0.173983
0.108023
0.061022
0.061022
0.068004
0.068004
0.074021
0.069991
0.048023
0.040019
0.051996
0.043027
0.001987
-0.022990
-0.004995
0.006982
-0.029972
-0.089972
-0.110009
-0.063974
-0.006982
0.004030
-0.004995
0.034002
0.100984
0.107001
0.051031
0.014021
0.019016
0.022990
0.016008
0.030028
0.051996
0.047001
0.021003
0.009991
0.019016
0.029007
0.034002
0.035024
0.035989
0.037010
0.032980
0.022990
0.022990
0.038032
0.040984
0.022025
0.012999
0.038032
0.066017
0.056991
0.025033
0.019981
0.048023
0.038032
-0.100984
-0.407966
-0.791012
-0.927020
-0.514967
0.212015
0.596991
0.390993
0.017994
-0.128004
-0.113983
-0.123974
-0.165979
-0.175970
-0.129991
-0.060000
-0.027985
-0.032980
-0.011977
0.037010
0.045014
0.016008
0.027020
0.079981
0.100984
0.068004
0.040019
0.061987
0.098032
0.102006
0.085033
0.077994
0.079981
0.069991
0.055005
0.048988
0.045014
0.030993
0.012999
0.006982
0.019981
0.038032
0.034002
0.000000
-0.037010
-0.051996
-0.045014
-0.035989
-0.042006
-0.060965
-0.084976
-0.115970
-0.147985
-0.141003
-0.071012
0.006982
0.030993
0.012034
-0.008004
-0.012999
-0.008004
-0.012999
-0.047001
-0.084976
-0.073964
-0.021968
0.014986
0.025033
0.030993
0.035989
0.025998
0.009026
0.001022
-0.003009
-0.004995
0.006982
0.029007
0.025998
-0.012999
-0.040984
-0.027985
-0.008004
-0.000965
0.024011
0.056026
0.038032
-0.008969
-0.004995
0.030993
-0.076008
-0.450993
-0.916008
-1.018978
-0.509972
0.244030
0.596026
0.372034
-0.008969
-0.165014
-0.136008
-0.116991
-0.139981
-0.141968
-0.120965
-0.097975
-0.064995
-0.021003
0.003009
0.003009
0.006982
0.024011
0.040984
0.056026
0.064995
0.051996
0.027020
0.027020
0.059035
0.092015
0.100019
0.077994
0.042006
0.030028
0.055005
0.074986
0.053018
0.019981
0.014986
0.025033
0.012999
-0.013964
-0.021003
-0.000965
0.021003
0.027020
0.017994
0.003009
-0.016008
-0.053018
-0.111996
-0.154002
-0.133964
-0.072999
-0.030993
-0.025998
-0.019016
0.008004
0.027020
0.019981
0.000000
-0.019981
-0.032980
-0.027985
-0.013964
-0.011012
-0.016008
-0.008969
0.008004
0.009026
-0.001987
-0.011012
-0.011977
-0.013964
-0.006982
0.012999
0.025998
0.014986
-0.006017
-0.009991
0.006017
0.017994
0.012999
0.004030
0.000000
-0.008004
-0.013964
0.001987
0.016008
-0.064995
-0.360000
-0.835970
-1.117010
-0.754002
0.092980
0.655005
0.512015
0.074021
-0.139016
-0.120965
-0.100984
-0.123974
-0.129991
-0.113983
-0.097010
-0.073964
-0.030993
0.022025
0.053983
0.048023
0.025998
0.032980
0.066982
0.087020
0.077029
0.063009
0.061987
0.071012
0.082025
0.084011
0.069991
0.059035
0.069026
0.082990
0.074021
0.051031
0.045014
0.061022
0.071012
0.058013
0.027985
0.006017
0.006982
0.017029
0.012034
-0.008969
-0.016973
-0.000965
0.003009
-0.035989
-0.090993
-0.102971
-0.060965
-0.024011
-0.032015
-0.050974
-0.025998
0.030028
0.058013
0.037010
-0.001987
-0.024976
-0.032015
-0.030993
-0.019981
0.000000
0.014986
0.009026
-0.014986
-0.029007
-0.013964
0.017029
0.034002
0.027020
0.012034
0.004995
0.004995
0.008004
0.014986
0.019981
0.017029
0.014986
0.025033
0.037010
0.030028
0.012034
0.014986
0.034002
-0.011012
-0.265998
-0.760019
-1.185979
-1.049972
-0.295970
0.450028
0.593018
0.262990
-0.024011
-0.087985
-0.081968
-0.100019
-0.105979
-0.087985
-0.063009
-0.027020
0.014021
0.042006
0.051031
0.056991
0.074021
0.095024
0.107001
0.105014
0.100984
0.107001
0.119035
0.123009
0.115005
0.108988
0.113018
0.116991
0.111031
0.100984
0.102006
0.108988
0.097010
0.066017
0.053018
0.074986
0.092015
0.076008
0.056991
0.059035
0.061022
0.048988
0.040984
0.040984
0.027020
-0.016008
-0.055005
-0.048988
0.001022
0.043992
0.042006
0.021003
0.032015
0.072034
0.089007
0.072999
0.059035
0.059035
0.051031
0.034002
0.030993
0.043027
0.056991
0.060000
0.046036
0.030993
0.035989
0.056026
0.064030
0.058013
0.053018
0.055005
0.051031
0.043027
0.047001
0.064995
0.072999
0.060000
0.040019
0.038032
0.059035
0.074986
0.069991
0.069026
0.053983
-0.115970
-0.536991
-0.958013
-0.898013
-0.257994
0.437029
0.632015
0.366017
0.066017
-0.034967
-0.019981
-0.008969
-0.011977
-0.006017
0.003009
0.012999
0.030993
0.056026
0.076008
0.084011
0.090028
0.103992
0.121022
0.126982
0.120000
0.116991
0.128004
0.137029
0.129026
0.113983
0.107001
0.107001
0.100984
0.085033
0.066017
0.047001
0.040984
0.063009
0.102006
0.116026
0.087020
0.053983
0.055005
0.069026
0.063009
0.047001
0.048023
0.046036
0.009991
-0.040984
-0.063009
-0.047966
-0.021968
-0.003009
0.006017
0.019981
0.053018
0.087985
0.090028
0.060000
0.034002
0.027985
0.034002
0.040984
0.048988
0.053983
0.053018
0.051996
0.053983
0.056026
0.053018
0.048023
0.046036
0.045014
0.042006
0.037010
0.038032
0.047001
0.058013
0.066982
0.071012
0.069991
0.061987
0.050009
0.043027
0.048988
0.059035
0.053018
-0.011977
-0.233018
-0.653018
-1.036973
-0.945979
-0.277010
0.454002
0.661022
0.366017
0.038997
-0.053018
-0.021968
-0.019016
-0.037975
-0.027020
0.001987
0.019981
0.029007
0.042006
0.064030
0.085033
0.098032
0.098997
0.095989
0.103027
0.120000
0.128004
0.116991
0.106036
0.115005
0.132999
0.132034
0.115005
0.103992
0.110009
0.116991
0.113983
0.100984
0.087020
0.074021
0.069026
0.071012
0.077994
0.079016
0.074986
0.076008
0.082990
0.082990
0.056991
0.009026
-0.037975
-0.053018
-0.029007
0.014021
0.037010
0.030028
0.030028
0.068004
0.115005
0.121987
0.090993
0.064030
0.056026
0.051996
0.042006
0.040984
0.051031
0.053983
0.043992
0.042006
0.060000
0.074021
0.069026
0.072034
0.097010
0.116991
0.110009
0.094002
0.079981
0.069991
0.066982
0.074021
0.077994
0.071012
0.060000
0.056991
0.066982
0.079016
0.056026
-0.077994
-0.410974
-0.869007
-1.078013
-0.695989
0.071012
0.583027
0.512980
0.168023
-0.029007
-0.035989
-0.027020
-0.053983
-0.055970
-0.021003
0.014021
0.038997
0.055005
0.066017
0.079016
0.098997
0.116026
0.119035
0.121022
0.132999
0.147020
0.147985
0.137994
0.131012
0.134986
0.145033
0.149007
0.145033
0.139016
0.136008
0.132999
0.124030
0.108023
0.097010
0.097010
0.100019
0.098997
0.095024
0.090993
0.079981
0.064995
0.058013
0.064995
0.064030
0.038032
-0.006017
-0.035989
-0.029972
0.003009
0.022025
0.016008
0.027020
0.082025
0.131012
0.113018
0.053018
0.021003
0.035989
0.061987
0.068004
0.061022
0.058013
0.056991
0.047001
0.037010
0.042006
0.059035
0.061022
0.048988
0.046036
0.059035
0.066017
0.060000
0.050009
0.043027
0.040984
0.053018
0.069991
0.072999
0.063009
0.056026
0.048988
0.038032
0.012034
-0.120965
-0.481987
-0.942006
-1.045998
-0.530009
0.226036
0.577010
0.390993
0.085033
-0.024976
-0.009991
-0.016973
-0.035989
-0.027985
-0.013964
-0.003974
0.021003
0.050009
0.063009
0.064030
0.064030
0.071012
0.094002
0.123009
0.134986
0.121987
0.103027
0.098997
0.105014
0.111031
0.120000
0.134986
0.141003
0.126982
0.111031
0.113018
0.118013
0.103992
0.081003
0.066982
0.060000
0.051031
0.046036
0.046036
0.038997
0.025998
0.022025
0.025998
0.019981
-0.006982
-0.034002
-0.029972
0.001987
0.024011
0.006017
-0.019981
0.000000
0.055005
0.085033
0.069026
0.042006
0.030993
0.034002
0.043027
0.048023
0.043992
0.040984
0.042006
0.043027
0.042006
0.043992
0.048023
0.046036
0.043992
0.045014
0.048023
0.048988
0.045014
0.042006
0.045014
0.051996
0.056991
0.056991
0.058013
0.056991
0.055005
0.060000
0.066982
0.037010
-0.105979
-0.428969
-0.861003
-1.071996
-0.716991
0.046036
0.575989
0.507985
0.152980
-0.038997
-0.037010
-0.019016
-0.029972
-0.022990
0.000000
0.019016
0.032980
0.047001
0.060000
0.077994
0.098032
0.113018
0.119035
0.124030
0.131012
0.134986
0.134986
0.136008
0.139016
0.139981
0.136008
0.132034
0.136008
0.141003
0.137029
0.121022
0.103027
0.097010
0.103992
0.108988
0.098997
0.082025
0.074021
0.077029
0.079016
0.074021
0.069991
0.066017
0.045014
0.001987
-0.035989
-0.032980
0.009991
0.043027
0.035989
0.025033
0.060000
0.116026
0.132999
0.106036
0.076008
0.060000
0.055005
0.058013
0.069991
0.076008
0.071012
0.066982
0.069026
0.069991
0.066982
0.064995
0.068004
0.072034
0.069991
0.069026
0.077994
0.092015
0.094002
0.076008
0.060000
0.064995
0.082990
0.087985
0.077029
0.069991
0.072999
0.060000
-0.030993
-0.304995
-0.765014
-1.122971
-0.968004
-0.298013
0.347001
0.484030
0.223992
-0.012999
-0.063974
-0.053018
-0.068969
-0.074986
-0.045979
-0.011977
0.009991
0.027985
0.046036
0.064030
0.079981
0.090028
0.097010
0.103992
0.108023
0.106036
0.103992
0.111996
0.123009
0.124995
0.118013
0.113018
0.115005
0.119035
0.119035
0.115005
0.110009
0.102006
0.090028
0.081003
0.077994
0.079016
0.077994
0.077029
0.079981
0.085033
0.082025
0.069026
0.042006
0.004995
-0.025998
-0.034002
-0.012999
0.019016
0.032015
0.027020
0.046036
0.098032
0.126982
0.102006
0.066982
0.063009
0.072999
0.072999
0.064995
0.056026
0.051031
0.053018
0.063009
0.072034
0.076008
0.077029
0.072999
0.059035
0.046036
0.048988
0.061987
0.069991
0.074986
0.081003
0.076008
0.058013
0.046036
0.050009
0.053018
0.050009
0.060000
0.076008
0.047001
-0.110009
-0.478978
-0.963974
-1.178997
-0.796973
-0.060000
0.408023
0.346036
0.063009
-0.094002
-0.113018
-0.115005
-0.118013
-0.089972
-0.051996
-0.029007
-0.014986
0.004030
0.024011
0.045014
0.066017
0.079981
0.077029
0.068004
0.072034
0.089007
0.103992
0.098997
0.082025
0.079981
0.108023
0.142990
0.145998
0.113983
0.081003
0.077029
0.094002
0.098032
0.076008
0.051031
0.045014
0.051031
0.061022
0.071012
0.072999
0.060000
0.046036
0.038032
0.012999
-0.037975
-0.081968
-0.092015
-0.071977
-0.045979
-0.034002
-0.019981
0.027020
0.084011
0.094002
0.061022
0.042006
0.050009
0.050009
0.035024
0.027985
0.037010
0.047001
0.048023
0.043027
0.040019
0.040984
0.040984
0.038032
0.038032
0.045014
0.051996
0.053018
0.050009
0.050009
0.053983
0.051996
0.048023
0.046036
0.045014
0.042006
0.051031
0.064030
0.047001
-0.032015
-0.240000
-0.658978
-1.143009
-1.234967
-0.684011
0.097010
0.455024
0.275024
-0.027985
-0.152980
-0.149972
-0.139016
-0.128969
-0.102971
-0.073964
-0.045979
-0.011977
0.014986
0.025033
0.030993
0.047001
0.069026
0.081003
0.082025
0.079016
0.079016
0.082025
0.087020
0.095024
0.107001
0.108988
0.098032
0.087985
0.098997
0.116991
0.111031
0.085033
0.064030
0.060000
0.060000
0.056991
0.053018
0.048023
0.045014
0.048988
0.051996
0.038032
0.001987
-0.032015
-0.050974
-0.056991
-0.045014
-0.011012
0.014021
0.004995
0.006982
0.061987
0.121022
0.113983
0.066982
0.045014
0.048988
0.045014
0.043027
0.056026
0.061022
0.048023
0.038997
0.042006
0.038032
0.034002
0.042006
0.047001
0.040019
0.037010
0.035024
0.022990
0.019016
0.040019
0.061987
0.060000
0.043992
0.035024
0.029007
0.027985
0.040984
0.063009
0.059035
-0.024011
-0.246982
-0.645979
-1.073018
-1.146982
-0.637975
0.098997
0.439016
0.249026
-0.056991
-0.165014
-0.150993
-0.154002
-0.160984
-0.132999
-0.089972
-0.056991
-0.030993
-0.003009
0.027020
0.051031
0.059035
0.056026
0.056991
0.066017
0.074986
0.089007
0.106036
0.108988
0.095024
0.089007
0.102006
0.108023
0.092980
0.074986
0.069026
0.072034
0.077994
0.081003
0.074021
0.063009
0.063009
0.069991
0.060000
0.038032
0.029007
0.040984
0.053018
0.040984
-0.004995
-0.069991
-0.107001
-0.087020
-0.042006
-0.019981
-0.016973
0.012034
0.066982
0.105014
0.098997
0.069026
0.038997
0.019981
0.017994
0.032980
0.051996
0.059035
0.051031
0.043027
0.046036
0.050009
0.040984
0.022990
0.017994
0.032980
0.047001
0.043027
0.030993
0.027020
0.035024
0.048023
0.056026
0.055005
0.048988
0.048023
0.048988
0.051996
0.066982
0.072034
-0.001987
-0.246017
-0.695989
-1.159016
-1.193983
-0.593983
0.184030
0.479035
0.236026
-0.066017
-0.139016
-0.105014
-0.124995
-0.168988
-0.160984
-0.113983
-0.081003
-0.066017
-0.034967
0.004995
0.022990
0.030028
0.053018
0.077029
0.068004
0.040984
0.042006
0.074021
0.095024
0.085033
0.069991
0.074021
0.085033
0.082025
0.068004
0.060000
0.060000
0.060000
0.058013
0.051996
0.043992
0.037010
0.029007
0.022990
0.025033
0.027985
0.025998
0.017029
-0.001987
-0.040984
-0.087985
-0.113983
-0.107001
-0.076973
-0.045014
-0.034002
-0.029972
0.006982
0.064030
0.081003
0.053018
0.027985
0.017029
0.006017
0.006982
0.022025
0.027020
0.017994
0.014021
0.022025
0.029007
0.030993
0.027985
0.019016
0.009026
0.006982
0.014986
0.027985
0.038997
0.042006
0.035024
0.024011
0.019016
0.019981
0.021003
0.017029
0.019016
0.030028
0.019016
-0.068969
-0.334002
-0.825979
-1.292015
-1.234967
-0.525014
0.265998
0.491012
0.192999
-0.118978
-0.191012
-0.160019
-0.163992
-0.173018
-0.144976
-0.107001
-0.082990
-0.063009
-0.032015
0.001987
0.022025
0.027020
0.030993
0.045014
0.061022
0.066017
0.059035
0.058013
0.069991
0.081003
0.081003
0.077029
0.077994
0.077994
0.066982
0.053983
0.051031
0.060000
0.069991
0.066017
0.043992
0.019016
0.011012
0.022025
0.032980
0.030993
0.019016
0.011012
0.006982
-0.011977
-0.056991
-0.098997
-0.092015
-0.043992
-0.011012
-0.019981
-0.029972
-0.000965
0.047001
0.066017
0.051031
0.035989
0.030993
0.019981
0.004995
0.011012
0.029007
0.019016
-0.022990
-0.042006
-0.006017
0.040984
0.042006
0.012999
0.011012
0.032015
0.030028
0.006017
0.009026
0.037010
0.042006
0.006982
-0.021968
-0.014986
0.008004
0.017994
0.024011
0.037010
0.027985
-0.032980
-0.194986
-0.557994
-1.057975
-1.255005
-0.758997
0.089007
0.517010
0.308004
-0.055970
-0.193964
-0.183974
-0.188969
-0.196008
-0.160019
-0.118978
-0.110974
-0.107001
-0.072999
-0.024976
0.001987
0.014021
0.030028
0.045014
0.048023
0.046036
0.043992
0.042006
0.045014
0.050009
0.058013
0.066982
0.072034
0.060000
0.038032
0.032980
0.043992
0.043027
0.022990
0.014021
0.027020
0.035989
0.029007
0.022990
0.021003
0.001987
-0.034002
-0.058978
-0.055005
-0.042006
-0.055005
-0.095989
-0.123009
-0.102006
-0.056991
-0.042006
-0.048988
-0.019016
0.045014
0.068004
0.025998
-0.024976
-0.035989
-0.019981
-0.001987
0.006017
0.004030
-0.001987
-0.004995
-0.001987
-0.004995
-0.017994
-0.032980
-0.037010
-0.024976
-0.006017
0.004995
0.008004
0.006017
0.000000
-0.016008
-0.027020
-0.016973
0.000000
-0.006982
-0.029972
-0.034002
-0.008969
0.009026
-0.016008
-0.128004
-0.410009
-0.864976
-1.198013
-0.974986
-0.218997
0.432034
0.470009
0.108023
-0.150993
-0.180965
-0.154002
-0.160019
-0.155989
-0.126017
-0.102006
-0.097010
-0.089007
-0.060965
-0.024011
-0.003009
0.004995
0.022990
0.047001
0.055005
0.048023
0.045014
0.042006
0.030028
0.032980
0.058013
0.071012
0.058013
0.048023
0.055005
0.053983
0.038032
0.025033
0.019016
0.009026
0.006017
0.016008
0.017994
0.001022
-0.016008
-0.021968
-0.019981
-0.011012
-0.008969
-0.040019
-0.092015
-0.120000
-0.115005
-0.100984
-0.097975
-0.100019
-0.076008
-0.006017
0.056991
0.048023
-0.008969
-0.042971
-0.038997
-0.034002
-0.038997
-0.043992
-0.040019
-0.027020
-0.014986
-0.022990
-0.043992
-0.053983
-0.042971
-0.029007
-0.027985
-0.030993
-0.024011
-0.016008
-0.019981
-0.024976
-0.025998
-0.042006
-0.071977
-0.074986
-0.045014
-0.017994
-0.003009
0.014986
0.006017
-0.094002
-0.334002
-0.747985
-1.216973
-1.320965
-0.744976
0.126982
0.527001
0.282006
-0.090993
-0.214967
-0.183974
-0.162006
-0.158997
-0.154967
-0.149972
-0.132999
-0.100019
-0.060000
-0.019981
0.009991
0.004995
-0.022990
-0.029972
0.001987
0.037010
0.048023
0.045014
0.045014
0.050009
0.056026
0.056026
0.043027
0.025998
0.030993
0.047001
0.040984
0.021003
0.022990
0.030993
0.009026
-0.021003
-0.014986
0.006017
0.001022
-0.016973
-0.019016
-0.006017
-0.008969
-0.037010
-0.077994
-0.110009
-0.113983
-0.079981
-0.029972
-0.013964
-0.047966
-0.072999
-0.037975
0.022025
0.046036
0.029007
-0.004995
-0.038997
-0.055005
-0.034002
-0.008004
-0.016008
-0.038997
-0.042006
-0.040019
-0.055970
-0.058978
-0.030993
-0.017994
-0.040019
-0.042971
0.000000
0.030993
0.006982
-0.030993
-0.025998
-0.001987
-0.032015
-0.094002
-0.095989
-0.027985
0.019016
0.001987
-0.045014
-0.147020
-0.426982
-0.917994
-1.331977
-1.185014
-0.410009
0.361987
0.501003
0.145998
-0.152980
-0.207985
-0.193964
-0.207020
-0.207020
-0.181987
-0.150993
-0.116991
-0.089972
-0.077994
-0.055970
-0.013964
0.011012
0.009026
0.017029
0.037010
0.037010
0.016008
0.001022
0.006982
0.027985
0.051031
0.061022
0.050009
0.025033
-0.001987
-0.011012
0.014986
0.051996
0.050009
0.008004
-0.016973
0.004030
0.030028
0.014021
-0.025998
-0.045014
-0.037975
-0.029007
-0.030993
-0.037975
-0.048988
-0.072999
-0.103992
-0.110009
-0.081003
-0.058978
-0.055005
-0.027985
0.022990
0.042006
0.014021
-0.017994
-0.032980
-0.035989
-0.016973
0.014021
0.019981
-0.004995
-0.017994
-0.012999
-0.021003
-0.042006
-0.042971
-0.032980
-0.029007
-0.017994
0.006982
0.014021
-0.006982
-0.024011
-0.019981
-0.008969
-0.006982
-0.021003
-0.045014
-0.050009
-0.012999
0.027985
0.017029
-0.063009
-0.241987
-0.612999
-1.120019
-1.336973
-0.861003
0.034002
0.569007
0.411031
-0.003009
-0.189991
-0.158997
-0.124995
-0.124995
-0.110009
-0.098997
-0.116991
-0.113983
-0.055005
0.006982
0.021003
0.014021
0.025998
0.043992
0.046036
0.047001
0.056026
0.066982
0.079016
0.087985
0.077029
0.055005
0.046036
0.047001
0.051031
0.064030
0.071012
0.043992
0.003009
-0.012999
-0.004995
0.009026
0.017994
0.016008
0.006982
0.001987
-0.006982
-0.019981
-0.016973
-0.003009
-0.019981
-0.079981
-0.141003
-0.142990
-0.066982
0.029007
0.056026
0.021003
0.016008
0.051031
0.045014
-0.008969
-0.030993
0.012034
0.047001
0.019981
-0.030993
-0.027985
0.027020
0.061987
0.048988
0.027020
0.017029
0.003009
-0.006982
0.006017
0.019016
0.012034
0.014021
0.038032
0.046036
0.025033
0.012999
0.022990
0.019981
0.003009
0.006982
0.025998
0.034002
0.040019
-0.021968
-0.335989
-0.916008
-1.336973
-1.096973
-0.291996
0.400019
0.509007
0.222006
-0.034002
-0.115005
-0.126017
-0.131977
-0.120000
-0.100019
-0.103992
-0.105014
-0.055970
0.008004
0.016008
-0.014986
-0.006982
0.051031
0.089007
0.074986
0.056991
0.069026
0.087985
0.092015
0.092980
0.098032
0.092980
0.077994
0.064030
0.063009
0.063009
0.058013
0.053983
0.061987
0.069026
0.053983
0.019981
-0.004995
-0.004995
0.014986
0.027985
0.012999
-0.011977
-0.016008
-0.003974
-0.006982
-0.034002
-0.072999
-0.102006
-0.097975
-0.058978
-0.024976
-0.012999
0.004995
0.045014
0.069991
0.048988
0.004030
-0.025998
-0.019981
0.009991
0.032980
0.032015
0.017029
0.008004
0.001987
-0.009991
-0.006982
0.022990
0.050009
0.038997
0.006017
-0.004995
0.017994
0.037010
0.022025
-0.008969
-0.011977
0.014986
0.030993
0.024011
0.014021
0.006982
0.009026
0.016008
-0.056991
-0.337010
-0.828988
-1.242006
-1.127966
-0.400984
0.372999
0.559016
0.223027
-0.087985
-0.132999
-0.090993
-0.102971
-0.120965
-0.095989
-0.050974
-0.025998
-0.035989
-0.045014
-0.014986
0.037010
0.064995
0.069991
0.077994
0.084011
0.079016
0.082990
0.100019
0.098032
0.072999
0.068004
0.095024
0.124995
0.139016
0.144011
0.129991
0.097010
0.068004
0.053018
0.030993
-0.001987
-0.017994
0.001987
0.032015
0.030993
0.009026
0.004995
0.025998
0.038032
0.014021
-0.025998
-0.058013
-0.082990
-0.110009
-0.113983
-0.076973
-0.037975
-0.045014
-0.069991
-0.043992
0.025998
0.060000
0.034002
0.001987
0.001987
0.014986
0.009991
-0.004995
-0.011977
-0.008969
-0.021003
-0.043992
-0.042006
-0.006982
0.019981
0.017994
0.014986
0.022025
0.019016
0.008004
0.012034
0.022990
0.016008
-0.011977
-0.032015
-0.027020
-0.009991
0.003009
0.014021
0.025998
0.017994
-0.050009
-0.275989
-0.734986
-1.225998
-1.260965
-0.630993
0.176991
0.504011
0.291031
-0.019981
-0.144011
-0.157975
-0.175005
-0.183009
-0.154002
-0.107001
-0.068969
-0.042006
-0.021003
-0.000965
0.009991
0.014986
0.027020
0.047001
0.058013
0.056991
0.053983
0.051996
0.048988
0.051996
0.058013
0.059035
0.061987
0.071012
0.072999
0.061987
0.056026
0.061987
0.056026
0.029007
0.011012
0.019016
0.025998
0.021003
0.014021
0.009026
-0.003009
-0.009991
-0.001987
0.011012
0.012999
-0.008004
-0.047966
-0.076973
-0.063974
-0.030993
-0.022990
-0.037010
-0.029007
0.001022
0.017029
0.022990
0.040019
0.047001
0.027985
0.011012
0.008004
0.001022
-0.011012
-0.006017
0.006982
0.009026
0.006982
0.014986
0.014021
-0.008969
-0.025998
-0.016008
0.003009
0.012999
0.012999
0.004995
-0.003974
-0.000965
0.006982
0.004995
-0.003974
0.000000
0.016008
0.016008
-0.027985
-0.149972
-0.420000
-0.857994
-1.191996
-0.977994
-0.227001
0.406036
0.418013
0.058013
-0.167966
-0.170009
-0.145998
-0.170009
-0.171996
-0.128004
-0.081968
-0.053018
-0.034002
-0.016008
0.000000
0.022990
0.043027
0.038997
0.021003
0.025033
0.056991
0.081003
0.087985
0.097010
0.108023
0.103027
0.085033
0.071012
0.061022
0.056026
0.064995
0.069026
0.040984
0.009026
0.022990
0.063009
0.064995
0.025033
-0.006017
-0.001987
0.014986
0.022990
0.019016
0.009991
-0.006982
-0.037975
-0.076008
-0.090993
-0.064995
-0.029972
-0.032015
-0.053983
-0.040019
0.014986
0.055005
0.047001
0.014986
-0.006017
-0.008969
0.001022
0.012999
0.014021
0.006017
0.004030
0.009026
0.012034
0.009026
0.006017
0.001987
-0.001987
0.006017
0.019016
0.012034
-0.006982
0.001987
0.042006
0.056991
0.022025
-0.017994
-0.024976
-0.017994
-0.009991
0.012999
0.032015
-0.035989
-0.270993
-0.685998
-1.118997
-1.198013
-0.687985
0.059035
0.411996
0.236991
-0.045979
-0.147020
-0.157975
-0.193964
-0.212015
-0.176991
-0.132999
-0.105014
-0.066982
-0.017994
0.014021
0.017029
0.009991
0.004995
0.004995
0.017994
0.042006
0.061022
0.064030
0.060000
0.061987
0.069991
0.077029
0.071012
0.053983
0.048988
0.060000
0.059035
0.037010
0.019016
0.019981
0.025033
0.025033
0.022990
0.019016
0.011012
0.003009
0.001987
0.008004
0.009991
-0.000965
-0.027985
-0.068969
-0.115005
-0.131977
-0.097975
-0.060965
-0.063009
-0.058013
0.000000
0.058013
0.053018
0.016008
-0.003974
-0.004995
0.001022
0.006982
0.009026
0.006017
0.004995
0.003009
-0.003009
-0.006982
-0.000965
0.000000
-0.016008
-0.030993
-0.019016
0.006982
0.016008
0.006982
-0.003974
-0.008969
-0.013964
-0.014986
-0.008004
0.000000
0.001987
0.009991
0.017994
-0.024011
-0.199016
-0.578997
-1.086982
-1.362971
-1.023009
-0.228988
0.347001
0.327020
0.021003
-0.154967
-0.171996
-0.175970
-0.181987
-0.160019
-0.136008
-0.120000
-0.087020
-0.038997
-0.006017
0.006017
0.014986
0.030028
0.046036
0.051996
0.048988
0.048023
0.061022
0.076008
0.077029
0.069991
0.064030
0.061987
0.060000
0.058013
0.056026
0.050009
0.043992
0.038032
0.035989
0.040984
0.046036
0.040019
0.025033
0.012999
0.001987
-0.013964
-0.025998
-0.019016
-0.001987
-0.006017
-0.045014
-0.089007
-0.100019
-0.068969
-0.032015
-0.019981
-0.019981
0.004030
0.047001
0.066017
0.051996
0.042006
0.038997
0.017994
-0.011012
-0.009991
0.004030
-0.004995
-0.027985
-0.034002
-0.022990
-0.006982
0.009026
0.012034
-0.004995
-0.025998
-0.032015
-0.014986
0.009026
0.009026
-0.014986
-0.017994
0.012999
0.032980
0.014021
-0.013964
-0.011012
0.012999
0.001022
-0.110009
-0.376973
-0.825979
-1.276008
-1.287985
-0.653018
0.147020
0.437029
0.189991
-0.105014
-0.192999
-0.189991
-0.197994
-0.188004
-0.152015
-0.118978
-0.094967
-0.066017
-0.038997
-0.021968
-0.004995
0.014986
0.025033
0.025998
0.034002
0.051996
0.064030
0.064030
0.063009
0.064030
0.063009
0.060000
0.060000
0.060000
0.053983
0.045014
0.042006
0.046036
0.046036
0.035024
0.017994
0.006017
0.006017
0.009026
0.001987
-0.006982
-0.001987
0.012999
0.009991
-0.025998
-0.074986
-0.111996
-0.120965
-0.100984
-0.066982
-0.047966
-0.055005
-0.053018
-0.016008
0.030993
0.045014
0.025033
0.004995
-0.001987
-0.008969
-0.017994
-0.019016
-0.004995
0.009026
0.014021
0.006017
-0.006982
-0.019981
-0.029007
-0.030993
-0.027020
-0.021968
-0.019981
-0.013964
-0.001987
0.008004
0.008004
-0.000965
-0.014986
-0.024011
-0.022990
-0.013964
0.004995
0.025998
-0.008004
-0.196973
-0.625998
-1.182971
-1.420984
-0.960000
-0.105979
0.392015
0.275024
-0.037975
-0.183009
-0.196008
-0.196008
-0.194986
-0.183974
-0.165014
-0.126017
-0.087020
-0.073964
-0.060965
-0.029972
-0.008004
-0.012999
-0.008969
0.019981
0.038997
0.035024
0.034002
0.043027
0.045014
0.042006
0.043992
0.048988
0.047001
0.038032
0.030028
0.030028
0.030028
0.024011
0.012999
0.001987
-0.006982
-0.008969
-0.006017
-0.009991
-0.024976
-0.035989
-0.027020
-0.009991
-0.009991
-0.032980
-0.068004
-0.108988
-0.139016
-0.133964
-0.102971
-0.079981
-0.073964
-0.048988
0.004995
0.048023
0.042006
0.009991
-0.004995
-0.004995
-0.016008
-0.030993
-0.027985
-0.014986
-0.006017
0.001022
-0.000965
-0.027985
-0.053983
-0.040019
-0.003974
0.009026
-0.001987
-0.014986
-0.019016
-0.011977
0.000000
0.006982
0.000000
-0.011977
-0.024011
-0.034967
-0.035989
-0.021968
-0.014986
-0.055005
-0.230974
-0.645014
-1.185979
-1.412015
-0.971977
-0.152015
0.356026
0.280984
-0.024011
-0.184995
-0.199016
-0.201968
-0.209972
-0.186017
-0.141968
-0.110974
-0.092980
-0.074986
-0.047966
-0.021003
-0.003974
0.006017
0.019016
0.030993
0.035989
0.040019
0.043027
0.043027
0.042006
0.043027
0.047001
0.048023
0.040019
0.030028
0.024011
0.025033
0.024011
0.019016
0.012999
0.012034
0.012999
0.011012
0.004030
-0.006017
-0.013964
-0.022990
-0.034002
-0.042006
-0.035989
-0.024011
-0.035989
-0.084976
-0.136973
-0.141003
-0.094002
-0.051996
-0.050974
-0.060000
-0.040019
-0.006017
0.001987
-0.013964
-0.027020
-0.029007
-0.032980
-0.034002
-0.029007
-0.027985
-0.037975
-0.047966
-0.042971
-0.029007
-0.021968
-0.029972
-0.042971
-0.050974
-0.051996
-0.047001
-0.035989
-0.021003
-0.011012
-0.006017
0.003009
0.003009
-0.027985
-0.068004
-0.064995
-0.019016
0.009026
-0.009991
-0.076008
-0.293983
-0.760019
-1.230993
-1.212999
-0.585014
0.128004
0.366982
0.150993
-0.118978
-0.217975
-0.225014
-0.248969
-0.251977
-0.180000
-0.110009
-0.126017
-0.163992
-0.120965
-0.043992
-0.032015
-0.068004
-0.066017
-0.021968
0.003009
0.000000
0.006982
0.029007
0.037010
0.024011
0.016008
0.021003
0.024011
0.017994
0.009991
0.006017
0.003009
-0.006982
-0.022990
-0.025998
-0.011012
-0.004995
-0.024011
-0.042971
-0.042006
-0.037010
-0.038997
-0.038997
-0.034967
-0.035989
-0.045014
-0.058013
-0.076008
-0.103992
-0.142990
-0.165979
-0.149007
-0.113018
-0.100984
-0.098997
-0.063974
-0.008969
0.016008
-0.000965
-0.029972
-0.050974
-0.056991
-0.050009
-0.043992
-0.050974
-0.056991
-0.053018
-0.047966
-0.042971
-0.022990
-0.008004
-0.027020
-0.063974
-0.066982
-0.038997
-0.019981
-0.022990
-0.030993
-0.038997
-0.048988
-0.047001
-0.027985
-0.012999
-0.019981
-0.034002
-0.040984
-0.047001
-0.094967
-0.300000
-0.745998
-1.196991
-1.146017
-0.462971
0.275024
0.450028
0.139016
-0.175970
-0.272015
-0.264011
-0.272015
-0.287966
-0.269007
-0.212980
-0.149972
-0.102971
-0.068969
-0.042971
-0.030993
-0.030993
-0.024011
-0.004995
0.012999
0.014986
0.004995
0.000000
-0.001987
-0.000965
0.019981
0.055005
0.058013
0.012999
-0.029007
-0.019981
0.014021
0.022990
0.009026
0.004030
0.009991
0.004995
-0.016973
-0.037010
-0.042006
-0.038997
-0.042971
-0.053983
-0.056991
-0.042006
-0.021968
-0.021968
-0.050009
-0.098997
-0.149972
-0.178013
-0.160984
-0.118978
-0.102971
-0.115005
-0.098997
-0.034002
0.027020
0.038032
0.014021
-0.013964
-0.034002
-0.040019
-0.029007
-0.019981
-0.030993
-0.047001
-0.043992
-0.029972
-0.022990
-0.027020
-0.027020
-0.024011
-0.024011
-0.024976
-0.017994
-0.003009
0.009026
0.011012
0.006982
-0.001987
-0.017994
-0.022990
-0.016008
-0.006982
0.001987
0.000000
-0.073964
-0.337010
-0.854986
-1.410993
-1.451977
-0.702971
0.259016
0.588023
0.236991
-0.158997
-0.249991
-0.207020
-0.207020
-0.217975
-0.189991
-0.142990
-0.102971
-0.081968
-0.068004
-0.045979
-0.011977
0.019016
0.029007
0.024011
0.025033
0.038032
0.048023
0.048023
0.043027
0.040019
0.042006
0.051031
0.056026
0.046036
0.029007
0.027020
0.042006
0.056026
0.058013
0.045014
0.008004
-0.030993
-0.030993
-0.003974
0.001022
-0.019981
-0.019016
-0.003009
-0.014986
-0.037975
-0.029972
-0.021968
-0.072999
-0.154967
-0.191012
-0.157010
-0.102006
-0.069991
-0.069991
-0.068004
-0.034002
0.016008
0.035024
0.014986
-0.009991
-0.016973
-0.016008
-0.016008
-0.017994
-0.017994
-0.013964
-0.009991
-0.014986
-0.019981
-0.016008
-0.012999
-0.013964
-0.011977
-0.006017
-0.004995
-0.008969
-0.008004
-0.006017
-0.011977
-0.021003
-0.019981
-0.011977
-0.011012
-0.006982
0.009991
-0.004995
-0.142990
-0.492999
-1.049007
-1.487966
-1.281003
-0.384976
0.447020
0.546017
0.134986
-0.175005
-0.233018
-0.233018
-0.235005
-0.186017
-0.116991
-0.084011
-0.071012
-0.045979
-0.024976
-0.027985
-0.034967
-0.016008
0.017029
0.035989
0.046036
0.059035
0.066017
0.063009
0.061987
0.066017
0.063009
0.048988
0.034002
0.032980
0.048023
0.060000
0.053018
0.042006
0.043992
0.050009
0.032980
-0.006017
-0.040019
-0.040984
-0.013964
0.009991
0.004030
-0.019981
-0.025998
-0.011012
-0.006017
-0.032015
-0.066982
-0.077994
-0.063009
-0.048988
-0.058978
-0.079981
-0.084011
-0.050974
0.003009
0.040019
0.042006
0.027020
0.016008
0.000000
-0.024011
-0.034002
-0.012999
0.021003
0.038997
0.030993
0.009026
-0.011012
-0.008969
0.009026
0.014021
-0.003974
-0.009991
0.014986
0.038997
0.030028
0.012034
0.014021
0.017029
-0.000965
-0.012999
0.008004
0.032980
0.025033
-0.045979
-0.282006
-0.783974
-1.331977
-1.373983
-0.672999
0.231031
0.586036
0.309026
-0.076973
-0.207985
-0.181987
-0.178013
-0.183009
-0.133964
-0.079016
-0.073964
-0.079981
-0.050974
-0.013964
-0.003974
0.006017
0.035989
0.053018
0.034002
0.017994
0.048023
0.102006
0.119035
0.087020
0.046036
0.038032
0.056026
0.068004
0.066982
0.066982
0.066982
0.051031
0.027020
0.012034
0.003009
-0.003974
0.001987
0.019016
0.019981
-0.004995
-0.029007
-0.019981
0.004030
0.006017
-0.032980
-0.100984
-0.152015
-0.147020
-0.087020
-0.019981
0.001987
-0.030993
-0.058978
-0.021968
0.045014
0.056026
0.012999
-0.008969
0.006982
0.009026
-0.013964
-0.027020
-0.016973
-0.003974
-0.008969
-0.021968
-0.008004
0.035989
0.056026
0.012999
-0.048988
-0.058978
-0.012999
0.025998
0.019981
-0.001987
-0.003974
-0.000965
-0.016973
-0.034967
-0.029007
-0.003974
0.019981
0.019981
-0.074986
-0.392015
-0.937975
-1.360984
-1.148969
-0.298013
0.468988
0.526036
0.097010
-0.191977
-0.178978
-0.141968
-0.204011
-0.227966
-0.162971
-0.110974
-0.111996
-0.102971
-0.056991
-0.003974
0.032015
0.038032
0.012034
-0.013964
-0.003009
0.027020
0.046036
0.060000
0.064995
0.038997
0.016008
0.038032
0.060000
0.035989
0.017994
0.025998
0.009026
-0.016008
-0.003974
0.008004
-0.030993
-0.072999
-0.066017
-0.025998
0.012999
0.021003
-0.017994
-0.061987
-0.058978
-0.055970
-0.126982
-0.212980
-0.193964
-0.098997
-0.042006
-0.037010
-0.025998
-0.008969
-0.011012
-0.024976
-0.048988
-0.074986
-0.053018
0.027020
0.087020
0.066982
0.006017
-0.032980
-0.042006
-0.045014
-0.043992
-0.021968
0.016008
0.035024
0.017029
-0.011012
-0.013964
-0.003974
-0.008969
-0.012999
0.009026
0.032980
0.022990
0.004030
0.003009
-0.011012
-0.050009
-0.055005
-0.006982
0.004030
-0.134986
-0.480000
-0.963009
-1.266982
-0.994002
-0.202990
0.466036
0.499016
0.090993
-0.217975
-0.238013
-0.173983
-0.175005
-0.158997
-0.079016
-0.040984
-0.089007
-0.115005
-0.066017
-0.024011
-0.029007
-0.032980
-0.021003
-0.011012
-0.003974
0.006017
0.025033
0.061987
0.103027
0.103027
0.046036
-0.024011
-0.027020
0.056026
0.121022
0.069991
-0.030993
-0.051996
-0.001987
0.030993
0.014986
-0.032980
-0.076008
-0.079016
-0.066982
-0.071012
-0.043992
0.019981
0.021003
-0.060965
-0.121987
-0.136008
-0.158997
-0.160984
-0.081968
-0.012999
-0.068969
-0.175970
-0.160019
-0.009991
0.108988
0.085033
-0.011012
-0.060000
-0.051996
-0.050009
-0.053983
-0.024976
0.019981
0.017994
-0.029007
-0.058013
-0.043992
-0.008969
0.022025
0.024011
-0.019981
-0.068969
-0.053018
0.019016
0.060000
0.029007
-0.027020
-0.047966
-0.008969
0.064995
0.103992
0.063009
-0.003974
-0.066017
-0.253964
-0.674986
-1.118997
-1.153964
-0.601987
0.175005
0.587001
0.434986
0.069991
-0.123974
-0.132999
-0.113018
-0.105979
-0.079981
-0.050009
-0.040019
-0.050974
-0.066017
-0.048988
0.014986
0.082990
0.095024
0.064995
0.066982
0.120000
0.157010
0.129991
0.089007
0.089007
0.105014
0.090993
0.074986
0.085033
0.079016
0.027020
-0.003974
0.019981
0.024011
-0.019981
-0.030993
0.001987
0.006017
-0.004995
0.016008
-0.001987
-0.081003
-0.094002
-0.035989
-0.047001
-0.105014
-0.068969
0.004995
-0.045014
-0.181987
-0.227001
-0.128004
-0.022990
-0.034002
-0.069991
0.001022
0.103992
0.092015
0.017994
0.003009
0.003009
-0.050974
-0.085998
-0.043992
0.003009
-0.022990
-0.073964
-0.038997
0.077994
0.124030
0.022990
-0.071012
-0.008004
0.095024
0.038997
-0.103992
-0.107966
0.022990
0.085998
0.035024
-0.001987
0.012999
0.009026
-0.021968
-0.021003
-0.000965
-0.077994
-0.411996
-1.002971
-1.449991
-1.200000
-0.293018
0.496008
0.570028
0.176991
-0.123974
-0.205998
-0.240965
-0.265998
-0.209972
-0.124995
-0.097010
-0.098997
-0.050974
0.019981
0.025998
-0.030993
-0.055970
-0.006017
0.056991
0.082025
0.092980
0.103027
0.077029
0.019981
0.006982
0.059035
0.090993
0.061987
0.047001
0.085998
0.098032
0.022990
-0.053018
-0.021003
0.081003
0.128004
0.081003
0.012034
-0.030993
-0.051996
-0.053018
-0.013964
0.045014
0.060000
0.012034
-0.042006
-0.060000
-0.068004
-0.087985
-0.089007
-0.045979
-0.001987
-0.008969
-0.047001
-0.027985
0.068004
0.136008
0.079981
-0.034967
-0.064995
0.001987
0.056026
0.030028
-0.021003
-0.029007
0.000000
0.014986
-0.006017
-0.019981
0.011012
0.038997
-0.006982
-0.092015
-0.092015
0.001987
0.072034
0.063009
0.040984
0.035989
0.000000
-0.058978
-0.060000
0.000000
0.024011
-0.004995
-0.045979
-0.222006
-0.702971
-1.230993
-1.178997
-0.405979
0.397010
0.552999
0.196008
-0.124995
-0.196973
-0.168988
-0.149972
-0.124995
-0.076008
-0.021003
0.014021
0.006017
-0.016973
0.012034
0.090028
0.139981
0.120000
0.061022
0.027020
0.063009
0.139981
0.176991
0.176026
0.189026
0.176991
0.085033
0.016008
0.071012
0.150028
0.120000
0.053983
0.077994
0.132034
0.092015
-0.000965
-0.022990
0.019016
0.043027
0.053018
0.074986
0.055005
-0.021968
-0.034967
0.066017
0.124030
0.022990
-0.126017
-0.167966
-0.115970
-0.051996
0.001022
0.050009
0.087985
0.098997
0.074986
0.024011
-0.004995
0.024011
0.066982
0.040984
-0.051996
-0.120965
-0.103992
-0.019016
0.056991
0.071012
0.055005
0.051031
0.032980
0.008004
0.061022
0.155989
0.131012
-0.006017
-0.055970
0.030993
0.082025
0.012034
-0.084011
-0.095989
-0.021003
0.072034
0.116991
0.103027
0.006982
-0.290974
-0.835970
-1.298997
-1.152999
-0.373964
0.374021
0.502990
0.150028
-0.180000
-0.264976
-0.223992
-0.183974
-0.163992
-0.141968
-0.103992
-0.064995
-0.064995
-0.098997
-0.092980
-0.014986
0.060000
0.059035
0.016008
0.014021
0.056991
0.087020
0.085998
0.084011
0.087985
0.079981
0.068004
0.066017
0.060000
0.056991
0.074021
0.082990
0.053983
0.019981
0.009991
0.001022
-0.012999
0.001987
0.027020
0.008004
-0.035989
-0.040019
-0.019981
-0.016973
-0.004995
0.032015
0.004030
-0.126982
-0.225979
-0.178013
-0.074986
-0.040019
-0.032980
0.004030
0.006017
-0.063009
-0.098997
-0.040019
0.030993
0.051031
0.061987
0.071012
0.009026
-0.100984
-0.121987
-0.016008
0.074021
0.034002
-0.050974
-0.048988
0.008004
0.017029
-0.012999
-0.004995
0.035989
0.048988
0.022990
0.001987
0.008004
0.011012
-0.022990
-0.060965
-0.053983
-0.027020
-0.032015
-0.087985
-0.290974
-0.770009
-1.284976
-1.224976
-0.407001
0.488004
0.711031
0.321003
-0.120965
-0.316008
-0.312999
-0.233018
-0.168988
-0.154002
-0.129991
-0.069991
-0.022990
-0.012999
-0.019016
-0.045979
-0.082990
-0.063974
0.025998
0.092015
0.066982
0.014986
0.021003
0.066982
0.081003
0.050009
0.017994
0.027985
0.064030
0.069991
0.035989
0.001987
-0.004995
0.014986
0.056026
0.074021
0.016008
-0.079981
-0.115005
-0.068969
-0.004995
0.024011
-0.001987
-0.060965
-0.089007
-0.068004
-0.058978
-0.105014
-0.167966
-0.188969
-0.160984
-0.121987
-0.100984
-0.090993
-0.055005
0.009026
0.053983
0.048023
0.014021
-0.006982
-0.027020
-0.084976
-0.149007
-0.141968
-0.060000
0.009026
0.009991
-0.029972
-0.068004
-0.079016
-0.050974
-0.008969
-0.004995
-0.034967
-0.048988
-0.038997
-0.047966
-0.073964
-0.069991
-0.037975
-0.029972
-0.038997
-0.019981
0.014986
0.001987
-0.098997
-0.332980
-0.757975
-1.253018
-1.396973
-0.861968
0.046036
0.583992
0.442025
0.025033
-0.212980
-0.251977
-0.246982
-0.227001
-0.178978
-0.129991
-0.102971
-0.102006
-0.123009
-0.131977
-0.095989
-0.040984
-0.016973
-0.029007
-0.024976
0.022990
0.056026
0.012999
-0.045979
-0.029007
0.038032
0.066982
0.040984
0.004995
-0.008969
-0.000965
0.003009
-0.029007
-0.085998
-0.118013
-0.102971
-0.055970
-0.006982
0.011012
-0.024011
-0.087985
-0.126982
-0.094967
-0.012999
0.019016
-0.061987
-0.189991
-0.254986
-0.236991
-0.178978
-0.126982
-0.102971
-0.092015
-0.064995
-0.037975
-0.040984
-0.055005
-0.055970
-0.048988
-0.050009
-0.079016
-0.141968
-0.175005
-0.124995
-0.056991
-0.055005
-0.089007
-0.081968
-0.038997
-0.013964
-0.040984
-0.103992
-0.144011
-0.123009
-0.077994
-0.064995
-0.087020
-0.092980
-0.072999
-0.068969
-0.095989
-0.102971
-0.061987
-0.030993
-0.048988
-0.076008
-0.170009
-0.548004
-1.213964
-1.652015
-1.289007
-0.295005
0.483009
0.499981
0.064995
-0.240000
-0.269007
-0.236991
-0.264011
-0.264976
-0.181987
-0.120965
-0.183974
-0.261968
-0.184995
-0.016973
0.022025
-0.076008
-0.121987
-0.055005
0.016008
0.025998
0.000000
-0.038997
-0.074986
-0.064995
-0.009991
0.029007
0.019981
-0.008969
-0.027020
-0.030993
-0.021003
-0.011977
-0.032980
-0.079981
-0.111996
-0.123009
-0.129991
-0.110009
-0.043992
0.009026
-0.025998
-0.107966
-0.144976
-0.120965
-0.094967
-0.102971
-0.152015
-0.217975
-0.246017
-0.204011
-0.136008
-0.102006
-0.110009
-0.103992
-0.063974
-0.047966
-0.098997
-0.142990
-0.094002
-0.016008
-0.025998
-0.103992
-0.139016
-0.118978
-0.126982
-0.170009
-0.167966
-0.102006
-0.053983
-0.073964
-0.103992
-0.074986
-0.022990
-0.042971
-0.136973
-0.201003
-0.158997
-0.063009
-0.011012
-0.030993
-0.061987
-0.042006
0.012999
0.008004
-0.133964
-0.424995
-0.865998
-1.357010
-1.511977
-0.947966
0.038032
0.598013
0.385033
-0.077994
-0.249991
-0.210993
-0.240000
-0.325998
-0.316973
-0.210993
-0.123974
-0.110974
-0.126017
-0.110974
-0.092980
-0.116991
-0.128004
-0.045979
0.068004
0.074021
-0.016973
-0.072999
-0.061987
-0.045979
-0.022990
0.042006
0.079016
0.012999
-0.100019
-0.150993
-0.121987
-0.037975
0.069991
0.108023
-0.003974
-0.167966
-0.186982
-0.037010
0.082990
0.014986
-0.131977
-0.150993
-0.058013
-0.034002
-0.092980
-0.097010
-0.071977
-0.165979
-0.321003
-0.316008
-0.144011
-0.032015
-0.087985
-0.163992
-0.131977
-0.048988
-0.016008
-0.021968
-0.021003
-0.021003
-0.037010
-0.060965
-0.095989
-0.139016
-0.152015
-0.111996
-0.061987
-0.029972
0.001987
0.025998
-0.013964
-0.102971
-0.136008
-0.076973
-0.027020
-0.066017
-0.129991
-0.134986
-0.102971
-0.100019
-0.128004
-0.152980
-0.160984
-0.118978
-0.037975
-0.126017
-0.643992
-1.370009
-1.555005
-0.823992
0.183009
0.593018
0.361987
0.030993
-0.170009
-0.329007
-0.398997
-0.293983
-0.157010
-0.147985
-0.201003
-0.186982
-0.110009
-0.050009
-0.050009
-0.097975
-0.155989
-0.167966
-0.092980
0.019981
0.069026
0.038032
-0.003974
-0.040019
-0.094967
-0.129991
-0.100019
-0.053983
-0.047001
-0.048988
-0.037975
-0.050974
-0.079016
-0.061987
-0.022990
-0.037010
-0.084976
-0.110974
-0.136973
-0.165014
-0.124995
-0.047966
-0.081003
-0.212980
-0.238013
-0.105014
-0.027985
-0.134986
-0.265998
-0.251977
-0.149972
-0.118978
-0.193964
-0.251012
-0.170974
-0.011012
0.059035
-0.009991
-0.113018
-0.173018
-0.196008
-0.160019
-0.043992
0.051996
0.006982
-0.115005
-0.157010
-0.126982
-0.139016
-0.162971
-0.089972
0.019016
0.022990
-0.050009
-0.105979
-0.142990
-0.145998
-0.055005
0.038997
0.003009
-0.102971
-0.141968
-0.126982
-0.132999
-0.165014
-0.293018
-0.694002
-1.294002
-1.535989
-0.938997
0.110009
0.674021
0.405014
-0.154002
-0.410009
-0.311012
-0.128969
-0.082990
-0.186982
-0.306017
-0.317994
-0.214967
-0.058978
0.051031
0.032980
-0.066982
-0.115970
-0.084011
-0.055970
-0.053983
-0.027020
0.024011
0.035024
-0.003974
-0.045014
-0.073964
-0.107001
-0.126017
-0.095989
-0.053018
-0.055005
-0.071012
-0.025998
0.046036
0.025998
-0.087985
-0.168988
-0.160984
-0.120000
-0.069991
-0.029007
-0.073964
-0.186017
-0.214967
-0.131977
-0.095989
-0.160984
-0.199981
-0.176991
-0.194986
-0.253964
-0.233983
-0.126982
-0.048988
-0.045014
-0.050974
-0.027020
-0.014986
-0.056991
-0.136973
-0.176991
-0.120000
-0.021968
-0.003974
-0.085998
-0.158997
-0.131012
-0.042006
-0.004995
-0.071012
-0.163992
-0.167966
-0.092015
-0.056991
-0.105979
-0.142990
-0.110009
-0.051996
-0.034002
-0.084011
-0.158997
-0.154967
-0.050974
0.004030
-0.089972
-0.225014
-0.347001
-0.650974
-1.203974
-1.516973
-1.020965
0.024011
0.653983
0.410009
-0.162971
-0.384011
-0.240000
-0.115970
-0.191012
-0.317994
-0.290974
-0.126982
-0.040019
-0.115005
-0.188969
-0.141968
-0.066982
-0.042006
0.009991
0.103027
0.092015
-0.058013
-0.152015
-0.066982
0.035024
-0.008969
-0.092980
-0.050974
0.058013
0.063009
-0.056991
-0.165979
-0.144976
-0.027985
0.030993
-0.027985
-0.089007
-0.069991
-0.040019
-0.037975
-0.019981
-0.025998
-0.136973
-0.254986
-0.220019
-0.094002
-0.047966
-0.077994
-0.087985
-0.116991
-0.218997
-0.301987
-0.256973
-0.128969
-0.027020
-0.004995
-0.034002
-0.060965
-0.079016
-0.111996
-0.149972
-0.158997
-0.128969
-0.071977
-0.045014
-0.115005
-0.209007
-0.167001
-0.006982
0.058013
-0.056991
-0.192999
-0.189991
-0.087985
-0.035989
-0.084011
-0.134986
-0.108988
-0.055970
-0.056991
-0.095989
-0.107001
-0.079016
-0.068969
-0.123009
-0.157010
-0.060000
0.027020
-0.256973
-0.942006
-1.459981
-1.227985
-0.364995
0.444011
0.700984
0.447020
0.014986
-0.304995
-0.403992
-0.332015
-0.223992
-0.180000
-0.199981
-0.191012
-0.105014
-0.034967
-0.084976
-0.184995
-0.170974
-0.034967
0.072034
0.064030
-0.006017
-0.060000
-0.056991
0.001987
0.040984
-0.043992
-0.196973
-0.209007
-0.013964
0.155024
0.082990
-0.100019
-0.136008
-0.048988
-0.053983
-0.150993
-0.136973
0.000000
0.043027
-0.087985
-0.218997
-0.217010
-0.132999
-0.055005
-0.008969
-0.019016
-0.081003
-0.142990
-0.171996
-0.165014
-0.113983
-0.058013
-0.090993
-0.199981
-0.264011
-0.238013
-0.150993
-0.024976
0.077994
0.064995
-0.037975
-0.113983
-0.152015
-0.196973
-0.180000
-0.022990
0.136008
0.085033
-0.118978
-0.214967
-0.157010
-0.120965
-0.115970
-0.011012
0.098997
0.019981
-0.134986
-0.131012
-0.009991
0.038032
-0.004995
-0.063974
-0.123009
-0.157975
-0.128969
-0.084976
-0.084976
-0.077994
-0.087020
-0.350009
-0.935989
-1.339981
-0.987020
-0.081003
0.556008
0.507985
0.116991
-0.147020
-0.184995
-0.154002
-0.173018
-0.243009
-0.287001
-0.269972
-0.230974
-0.183009
-0.094002
-0.021003
-0.063974
-0.145998
-0.085998
0.074986
0.126017
0.019016
-0.110009
-0.165014
-0.136008
-0.042971
0.064995
0.095989
-0.021968
-0.217010
-0.257994
-0.047001
0.166036
0.111996
-0.076973
-0.123009
-0.055970
-0.076973
-0.152980
