---
Mammal:            mouse
Fs:                1000
Integration_level: electrocardiogram

Channels:

    - type:   electrography
      name:   Data
      unit:   mV
      enable: yes

---

-1.380023
-1.921026
-1.618023
-0.603015
0.273969
0.472967
0.277002
0.145001
0.131004
0.102967
0.056987
0.046977
0.061971
0.070985
0.070985
0.071981
0.075969
0.085979
0.095989
0.099976
0.099976
0.101970
0.104005
0.104005
0.100973
0.098980
0.099976
0.100973
0.099976
0.095989
0.090008
0.081991
0.078004
0.074972
0.070985
0.065003
0.059978
0.055990
0.054993
0.054993
0.053000
0.047974
0.041993
0.040996
0.041993
0.040996
0.035970
0.032979
0.032979
0.032979
0.029989
0.027995
0.029989
0.034973
0.036967
0.033976
0.030986
0.027995
0.027995
0.030986
0.032979
0.028992
0.021972
0.019979
0.024008
0.025004
0.022969
0.024008
0.024008
0.020976
0.016988
0.016988
0.018982
0.019979
0.018982
0.018982
0.018982
0.017985
0.015991
0.014994
0.014994
0.013001
0.011007
0.009969
0.009969
0.012004
0.013998
0.014994
0.014994
0.015991
0.018982
0.019979
0.018982
0.018982
0.019979
0.021972
0.022969
0.022969
0.019979
0.015991
0.013001
0.013001
0.008972
-0.013998
-0.049012
-0.067994
-0.050009
-0.014994
0.005981
0.004984
-0.003032
0.003987
0.025004
0.045980
0.048971
0.038005
0.026998
0.024008
0.026998
0.028992
0.029989
0.030986
0.032979
0.033976
0.033976
0.031982
0.031982
0.031982
0.028992
0.024008
0.024008
0.025004
0.024008
0.021972
0.020976
0.019979
0.017985
0.018982
0.019979
0.017985
0.013001
0.008972
0.013998
0.028992
0.048971
0.039999
-0.145998
-0.719024
-1.539022
-1.942998
-1.414000
-0.345992
0.372991
0.430974
0.237003
0.152976
0.140972
0.092998
0.047974
0.048971
0.062968
0.065003
0.068991
0.079998
0.085979
0.085979
0.085979
0.091005
0.096986
0.098980
0.094992
0.088969
0.090008
0.097983
0.101970
0.098980
0.091005
0.080995
0.077007
0.080995
0.081991
0.072978
0.060974
0.056987
0.055990
0.053000
0.047974
0.045980
0.044983
0.042989
0.039002
0.034973
0.030986
0.030986
0.032979
0.030986
0.026001
0.022969
0.025004
0.027995
0.027995
0.025004
0.022969
0.022969
0.025004
0.024008
0.024008
0.026001
0.026001
0.021972
0.019979
0.019979
0.019979
0.019979
0.018982
0.016988
0.015991
0.015991
0.017985
0.019979
0.020976
0.019979
0.017985
0.017985
0.017985
0.016988
0.015991
0.016988
0.014994
0.009969
0.006978
0.008972
0.013001
0.013998
0.013998
0.013001
0.012004
0.011007
0.013001
0.015991
0.016988
0.017985
0.018982
0.019979
0.017985
0.015991
0.017985
0.017985
0.005981
-0.023011
-0.048015
-0.052003
-0.039999
-0.019023
0.002991
0.009969
-0.000997
-0.001994
0.020976
0.044983
0.042989
0.029989
0.026001
0.029989
0.029989
0.026998
0.028992
0.035970
0.036967
0.028992
0.024008
0.027995
0.031982
0.029989
0.029989
0.032979
0.032979
0.024008
0.017985
0.022969
0.027995
0.021972
0.008972
0.006978
0.015991
0.020976
0.017985
0.022969
0.041993
0.061971
0.056987
-0.096031
-0.616016
-1.444030
-1.964015
-1.563030
-0.501004
0.313968
0.440984
0.242984
0.141969
0.135988
0.095989
0.044983
0.039999
0.054993
0.059978
0.062968
0.073975
0.088969
0.096986
0.097983
0.098980
0.104005
0.106996
0.105999
0.105002
0.105999
0.107993
0.106996
0.102967
0.098980
0.098980
0.097983
0.090008
0.079998
0.074972
0.070985
0.061971
0.053996
0.055990
0.061971
0.059978
0.051006
0.047974
0.052003
0.054993
0.054993
0.053000
0.048971
0.042989
0.039002
0.038005
0.041993
0.045980
0.045980
0.042989
0.041993
0.041993
0.039002
0.038005
0.039999
0.042989
0.043986
0.043986
0.042989
0.041993
0.039999
0.039999
0.041993
0.042989
0.040996
0.035970
0.033976
0.038005
0.039999
0.038005
0.031982
0.027995
0.027995
0.029989
0.029989
0.028992
0.027995
0.027995
0.028992
0.028992
0.027995
0.027995
0.027995
0.027995
0.026998
0.026998
0.026001
0.026001
0.030986
0.032979
0.019979
-0.012004
-0.039002
-0.045025
-0.031027
-0.009013
0.007975
0.009969
0.004984
0.015991
0.044983
0.065003
0.061971
0.047974
0.038005
0.035970
0.035970
0.035970
0.036967
0.040996
0.046977
0.048971
0.045980
0.041993
0.039999
0.041993
0.042989
0.039999
0.034973
0.032979
0.035970
0.039002
0.036967
0.032979
0.033976
0.033976
0.029989
0.027995
0.029989
0.025004
0.024008
0.047974
0.080995
0.042989
-0.210004
-0.807994
-1.590028
-1.938014
-1.367023
-0.281030
0.417974
0.434006
0.215986
0.135988
0.134991
0.094992
0.053996
0.054993
0.066997
0.069988
0.073975
0.083985
0.092002
0.095989
0.098980
0.104005
0.106996
0.107993
0.107993
0.109987
0.111980
0.111980
0.109987
0.106996
0.104005
0.096986
0.088969
0.083985
0.079998
0.075969
0.070985
0.067994
0.065003
0.060974
0.054993
0.049967
0.048971
0.051006
0.049967
0.044983
0.040996
0.041993
0.044983
0.045980
0.040996
0.034973
0.033976
0.036967
0.039002
0.038005
0.038005
0.036967
0.034973
0.033976
0.035970
0.038005
0.035970
0.032979
0.030986
0.031982
0.031982
0.031982
0.031982
0.031982
0.030986
0.026998
0.025004
0.026001
0.028992
0.029989
0.028992
0.026001
0.024008
0.022969
0.021972
0.018982
0.016988
0.017985
0.017985
0.017985
0.017985
0.016988
0.016988
0.017985
0.017985
0.016988
0.017985
0.020976
0.021972
0.019979
0.019979
0.020976
0.021972
0.022969
0.024008
0.022969
0.019979
0.015991
0.004984
-0.022014
-0.052003
-0.057029
-0.032024
0.000000
0.013001
0.007975
0.005981
0.020976
0.042989
0.055990
0.052003
0.039002
0.029989
0.028992
0.032979
0.038005
0.038005
0.035970
0.035970
0.039002
0.041993
0.040996
0.036967
0.034973
0.034973
0.034973
0.034973
0.033976
0.030986
0.026001
0.024008
0.024008
0.022969
0.020976
0.025004
0.029989
0.026001
0.019979
0.026001
0.044983
0.060974
0.006978
-0.308029
-1.009027
-1.745994
-1.815027
-1.010023
-0.009013
0.439988
0.356002
0.201988
0.165977
0.139975
0.084982
0.057984
0.066000
0.069988
0.070985
0.079998
0.093995
0.100973
0.099976
0.099976
0.105002
0.108990
0.109987
0.108990
0.110983
0.115968
0.117006
0.112977
0.107993
0.101970
0.097983
0.096986
0.092998
0.084982
0.074972
0.070985
0.067994
0.061971
0.054993
0.053000
0.054993
0.053996
0.052003
0.052003
0.054993
0.055990
0.053996
0.053996
0.054993
0.052003
0.046977
0.041993
0.041993
0.043986
0.047974
0.047974
0.044983
0.041993
0.041993
0.041993
0.039999
0.039002
0.039002
0.039002
0.039002
0.040996
0.044983
0.044983
0.041993
0.035970
0.032979
0.034973
0.038005
0.038005
0.030986
0.026001
0.026001
0.030986
0.032979
0.030986
0.028992
0.028992
0.029989
0.027995
0.026001
0.026001
0.026998
0.026998
0.026998
0.026998
0.026998
0.026001
0.025004
0.026998
0.026001
0.022969
0.020976
0.025004
0.029989
0.031982
0.032979
0.026001
0.004984
-0.025004
-0.045025
-0.039999
-0.010010
0.020976
0.027995
0.015991
0.013998
0.029989
0.046977
0.048971
0.042989
0.040996
0.040996
0.039002
0.039999
0.044983
0.048971
0.044983
0.035970
0.030986
0.031982
0.034973
0.033976
0.031982
0.034973
0.041993
0.043986
0.038005
0.030986
0.030986
0.033976
0.035970
0.030986
0.024008
0.021972
0.022969
0.019979
0.025004
0.052003
0.079998
-0.026001
-0.482022
-1.281999
-1.914006
-1.725019
-0.745026
0.204979
0.494981
0.317997
0.160992
0.137982
0.112977
0.065003
0.051006
0.066997
0.079001
0.083985
0.085979
0.087973
0.094992
0.106996
0.112977
0.110983
0.107993
0.108990
0.108990
0.108990
0.108990
0.110983
0.110983
0.109987
0.105999
0.099976
0.098980
0.100973
0.097983
0.086976
0.079001
0.079998
0.079998
0.071981
0.062968
0.062968
0.067994
0.069988
0.067994
0.065003
0.061971
0.060974
0.061971
0.058981
0.053000
0.053000
0.058981
0.060974
0.055990
0.049967
0.049967
0.052003
0.052003
0.052003
0.053000
0.053996
0.051006
0.045980
0.044983
0.048971
0.051006
0.048971
0.046977
0.048971
0.051006
0.048971
0.045980
0.044983
0.042989
0.039999
0.039999
0.041993
0.041993
0.038005
0.031982
0.031982
0.033976
0.033976
0.030986
0.029989
0.030986
0.033976
0.035970
0.033976
0.029989
0.026998
0.028992
0.030986
0.032979
0.032979
0.020976
-0.008016
-0.037008
-0.038005
-0.018026
0.000997
0.011007
0.013998
0.013001
0.020976
0.043986
0.065003
0.065003
0.052003
0.040996
0.036967
0.038005
0.043986
0.047974
0.047974
0.044983
0.042989
0.039999
0.036967
0.033976
0.033976
0.033976
0.032979
0.032979
0.031982
0.029989
0.027995
0.028992
0.030986
0.030986
0.028992
0.027995
0.028992
0.026998
0.026001
0.032979
0.053000
0.078004
0.026998
-0.294031
-1.000013
-1.754011
-1.863997
-1.083002
-0.046022
0.453985
0.370997
0.188987
0.144004
0.127971
0.074972
0.044983
0.057984
0.070985
0.071981
0.073975
0.081991
0.090008
0.096986
0.102967
0.106996
0.108990
0.110983
0.111980
0.110983
0.108990
0.107993
0.106996
0.102967
0.097983
0.093995
0.090008
0.084982
0.078004
0.071981
0.068991
0.064006
0.058981
0.056987
0.057984
0.057984
0.053996
0.049967
0.046977
0.043986
0.040996
0.039999
0.040996
0.041993
0.041993
0.041993
0.040996
0.038005
0.033976
0.032979
0.035970
0.039002
0.039999
0.038005
0.035970
0.033976
0.031982
0.027995
0.026001
0.028992
0.030986
0.027995
0.022969
0.020976
0.020976
0.019979
0.019979
0.024008
0.028992
0.029989
0.028992
0.029989
0.029989
0.027995
0.026001
0.025004
0.025004
0.022969
0.019979
0.019979
0.019979
0.020976
0.020976
0.017985
0.013998
0.012004
0.011007
0.009969
0.009969
0.013001
0.014994
0.015991
0.013001
0.011007
0.012004
0.012004
0.001994
-0.022014
-0.047018
-0.054993
-0.039999
-0.011007
0.009969
0.007975
-0.004029
0.001994
0.027995
0.045980
0.039002
0.022969
0.013998
0.012004
0.013998
0.017985
0.022969
0.021972
0.019979
0.021972
0.026001
0.026998
0.021972
0.016988
0.015991
0.013998
0.012004
0.008972
0.006978
0.007975
0.007975
0.008972
0.007975
0.007975
0.005981
0.001994
0.000997
0.012004
0.029989
0.043986
0.014994
-0.218021
-0.841015
-1.639995
-1.930994
-1.299029
-0.244022
0.383001
0.387985
0.205975
0.140972
0.124981
0.069988
0.029989
0.036967
0.051006
0.049967
0.051006
0.060974
0.069988
0.074972
0.080995
0.084982
0.084982
0.083985
0.082988
0.081991
0.081991
0.080995
0.078004
0.072978
0.069988
0.069988
0.066000
0.056987
0.051006
0.048971
0.048971
0.044983
0.041993
0.038005
0.032979
0.026001
0.019979
0.019979
0.019979
0.018982
0.014994
0.014994
0.016988
0.016988
0.012004
0.005981
0.003987
0.004984
0.006978
0.006978
0.004984
0.004984
0.004984
0.001994
0.000000
0.002991
0.005981
0.004984
0.002991
0.003987
0.004984
0.001994
-0.000997
-0.001994
-0.001994
-0.004029
-0.005026
-0.006023
-0.005026
-0.001994
-0.000997
-0.003032
-0.005026
-0.001994
0.000000
-0.004029
-0.009013
-0.013001
-0.013998
-0.011007
-0.007020
-0.007020
-0.012004
-0.013001
-0.010010
-0.006023
-0.007020
-0.012004
-0.014994
-0.013998
-0.011007
-0.009013
-0.009013
-0.008016
-0.004029
-0.007020
-0.023011
-0.047018
-0.064006
-0.066000
-0.056032
-0.037008
-0.019023
-0.014994
-0.020020
-0.013998
0.004984
0.014994
0.011007
0.004984
0.001994
0.000000
-0.001994
-0.004029
-0.000997
0.008972
0.015991
0.013001
0.002991
-0.003032
-0.003032
-0.000997
-0.000997
-0.000997
0.000997
0.000000
-0.006023
-0.009013
-0.004029
0.001994
0.000000
-0.006023
-0.011007
-0.017030
-0.021017
-0.003032
0.025004
0.030986
-0.054993
-0.406011
-1.146011
-1.899012
-1.909022
-0.990003
0.061971
0.455979
0.297977
0.123984
0.101970
0.084982
0.034973
0.015991
0.032979
0.043986
0.040996
0.038005
0.043986
0.055990
0.065003
0.066997
0.067994
0.073975
0.078004
0.075969
0.074972
0.075969
0.073975
0.069988
0.067994
0.066000
0.061971
0.058981
0.055990
0.049967
0.041993
0.038005
0.036967
0.032979
0.026001
0.020976
0.021972
0.022969
0.021972
0.017985
0.013998
0.008972
0.004984
0.005981
0.009969
0.013001
0.013001
0.009969
0.007975
0.005981
0.003987
0.003987
0.003987
0.002991
0.001994
0.002991
0.004984
0.003987
0.001994
0.000000
-0.001994
-0.003032
-0.000997
0.000000
0.000000
-0.001994
-0.004029
-0.005026
-0.006023
-0.005026
-0.006023
-0.008016
-0.009013
-0.010010
-0.012004
-0.013001
-0.013001
-0.013001
-0.016033
-0.018026
-0.016033
-0.013998
-0.016033
-0.019023
-0.021017
-0.019023
-0.017030
-0.017030
-0.019023
-0.022014
-0.020020
-0.016033
-0.028992
-0.066000
-0.097027
-0.096031
-0.073020
-0.050009
-0.039002
-0.041993
-0.046022
-0.030030
0.000997
0.016988
0.007975
-0.006023
-0.012004
-0.012004
-0.009013
-0.007020
-0.007020
-0.007020
-0.005026
-0.003032
-0.003032
-0.006023
-0.009013
-0.011007
-0.011007
-0.011007
-0.011007
-0.012004
-0.012004
-0.012004
-0.011007
-0.012004
-0.014994
-0.018026
-0.021017
-0.020020
-0.020020
-0.026998
-0.027995
-0.001994
0.029989
-0.037008
-0.370997
-1.056003
-1.783999
-1.900009
-1.133011
-0.091005
0.413986
0.322982
0.130007
0.088969
0.080995
0.029989
-0.001994
0.007975
0.019979
0.020976
0.026001
0.039002
0.045980
0.043986
0.043986
0.051006
0.056987
0.056987
0.053996
0.054993
0.056987
0.055990
0.051006
0.047974
0.046977
0.042989
0.036967
0.031982
0.029989
0.025004
0.018982
0.015991
0.014994
0.009969
0.004984
0.001994
0.001994
-0.000997
-0.005026
-0.007020
-0.008016
-0.008016
-0.009013
-0.009013
-0.010010
-0.011007
-0.012004
-0.013998
-0.014994
-0.014994
-0.016033
-0.023011
-0.027995
-0.026998
-0.022014
-0.020020
-0.022014
-0.023011
-0.024008
-0.023011
-0.020020
-0.021017
-0.025004
-0.026998
-0.026001
-0.025004
-0.026998
-0.030030
-0.030030
-0.028992
-0.028992
-0.028992
-0.028992
-0.032024
-0.036011
-0.037008
-0.036011
-0.036011
-0.038005
-0.040996
-0.043031
-0.043031
-0.039002
-0.033021
-0.031027
-0.033021
-0.037008
-0.038005
-0.033021
-0.026998
-0.026998
-0.031027
-0.032024
-0.032024
-0.035015
-0.035015
-0.038005
-0.054993
-0.084027
-0.105002
-0.105999
-0.089011
-0.062013
-0.043031
-0.045025
-0.051006
-0.037008
-0.011007
0.000000
-0.008016
-0.020020
-0.028992
-0.033021
-0.031027
-0.023011
-0.019023
-0.021017
-0.023011
-0.021017
-0.018026
-0.018026
-0.023011
-0.027995
-0.031027
-0.030030
-0.027995
-0.026998
-0.026998
-0.027995
-0.027995
-0.027995
-0.027995
-0.031027
-0.034018
-0.033021
-0.034018
-0.037008
-0.021017
0.014994
-0.000997
-0.233015
-0.817007
-1.581015
-1.939011
-1.437010
-0.419012
0.291996
0.371994
0.191978
0.105999
0.087973
0.040996
-0.001994
-0.001994
0.013001
0.017985
0.017985
0.021972
0.028992
0.036967
0.043986
0.045980
0.045980
0.048971
0.051006
0.052003
0.052003
0.049967
0.045980
0.041993
0.040996
0.039002
0.032979
0.026998
0.022969
0.020976
0.018982
0.015991
0.012004
0.005981
0.001994
-0.000997
-0.003032
-0.005026
-0.007020
-0.011007
-0.013998
-0.012004
-0.009013
-0.013001
-0.024008
-0.026001
-0.013998
-0.004029
-0.005026
-0.010010
-0.013001
-0.018026
-0.025004
-0.030030
-0.026998
-0.020020
-0.012004
-0.007020
-0.009013
-0.018026
-0.024008
-0.020020
-0.012004
-0.012004
-0.021017
-0.026998
-0.023011
-0.022014
-0.026001
-0.031027
-0.030030
-0.026001
-0.026001
-0.032024
-0.039999
-0.040996
-0.034018
-0.027995
-0.028992
-0.035015
-0.038005
-0.036011
-0.034018
-0.032024
-0.032024
-0.032024
-0.031027
-0.031027
-0.031027
-0.028992
-0.024008
-0.023011
-0.026001
-0.030030
-0.032024
-0.038005
-0.052003
-0.070029
-0.085024
-0.087017
-0.072023
-0.050009
-0.039999
-0.043031
-0.043031
-0.024008
0.000997
0.013001
0.004984
-0.013001
-0.024008
-0.021017
-0.013001
-0.011007
-0.011007
-0.006023
-0.001994
-0.001994
-0.007020
-0.012004
-0.014994
-0.014994
-0.013001
-0.009013
-0.009013
-0.011007
-0.012004
-0.011007
-0.010010
-0.010010
-0.012004
-0.013998
-0.013001
-0.010010
-0.013001
-0.018026
0.001994
0.041993
-0.001994
-0.330001
-1.037022
-1.803023
-1.954005
-1.197017
-0.132000
0.409999
0.332992
0.127971
0.077007
0.074972
0.031982
-0.000997
0.005981
0.020976
0.027995
0.030986
0.033976
0.038005
0.045980
0.057984
0.065003
0.062968
0.061971
0.064006
0.066000
0.065003
0.061971
0.059978
0.058981
0.055990
0.052003
0.045980
0.040996
0.038005
0.036967
0.033976
0.031982
0.030986
0.027995
0.021972
0.015991
0.013998
0.011007
0.005981
0.002991
0.003987
0.004984
0.003987
0.001994
0.000000
-0.001994
-0.003032
-0.000997
0.001994
0.003987
0.001994
-0.001994
-0.003032
-0.000997
0.000997
-0.000997
-0.003032
-0.003032
-0.003032
-0.004029
-0.005026
-0.001994
0.001994
0.000997
-0.005026
-0.011007
-0.013998
-0.016033
-0.019023
-0.019023
-0.017030
-0.017030
-0.021017
-0.025004
-0.026001
-0.024008
-0.024008
-0.025004
-0.024008
-0.021017
-0.020020
-0.020020
-0.023011
-0.025004
-0.026001
-0.023011
-0.022014
-0.023011
-0.023011
-0.022014
-0.022014
-0.022014
-0.022014
-0.033021
-0.062013
-0.090008
-0.089011
-0.066997
-0.046022
-0.037008
-0.036011
-0.038005
-0.028992
-0.006023
0.013001
0.013001
-0.000997
-0.014994
-0.022014
-0.020020
-0.011007
-0.001994
0.000000
-0.001994
-0.001994
-0.003032
-0.006023
-0.010010
-0.011007
-0.009013
-0.008016
-0.008016
-0.010010
-0.013998
-0.021017
-0.025004
-0.024008
-0.021017
-0.022014
-0.027995
-0.032024
-0.028992
-0.024008
-0.014994
0.005981
0.027995
-0.066997
-0.486009
-1.253007
-1.896021
-1.767011
-0.851025
0.090008
0.418971
0.277002
0.125978
0.098980
0.074972
0.026001
0.003987
0.013001
0.024008
0.031982
0.039002
0.043986
0.046977
0.052003
0.057984
0.059978
0.058981
0.058981
0.060974
0.061971
0.060974
0.058981
0.058981
0.057984
0.053996
0.048971
0.042989
0.038005
0.032979
0.029989
0.026001
0.019979
0.015991
0.013001
0.011007
0.007975
0.003987
0.000997
-0.000997
-0.000997
0.000000
0.000000
-0.001994
-0.001994
0.000997
0.001994
-0.001994
-0.006023
-0.008016
-0.008016
-0.008016
-0.009013
-0.012004
-0.013001
-0.007020
-0.003032
-0.006023
-0.012004
-0.013998
-0.012004
-0.010010
-0.009013
-0.008016
-0.009013
-0.013001
-0.016033
-0.016033
-0.014994
-0.013998
-0.013998
-0.014994
-0.017030
-0.019023
-0.019023
-0.018026
-0.019023
-0.022014
-0.024008
-0.023011
-0.020020
-0.018026
-0.020020
-0.021017
-0.020020
-0.020020
-0.020020
-0.019023
-0.019023
-0.019023
-0.019023
-0.018026
-0.016033
-0.013998
-0.011007
-0.009013
-0.018026
-0.041993
-0.070029
-0.085024
-0.080995
-0.060019
-0.035015
-0.024008
-0.030030
-0.031027
-0.010010
0.013001
0.015991
0.005981
-0.004029
-0.006023
-0.005026
-0.004029
-0.001994
-0.000997
-0.000997
-0.001994
-0.000997
0.000000
-0.000997
0.000000
0.001994
0.002991
0.000000
-0.007020
-0.009013
-0.005026
0.002991
0.004984
-0.003032
-0.013998
-0.020020
-0.019023
-0.016033
-0.013998
-0.007020
0.013001
0.030986
-0.079998
-0.532031
-1.308997
-1.899012
-1.684023
-0.740000
0.146995
0.417974
0.272973
0.146995
0.123984
0.084982
0.027995
0.012004
0.025004
0.031982
0.036967
0.045980
0.052003
0.052003
0.053996
0.061971
0.071981
0.079001
0.080995
0.078004
0.072978
0.070985
0.069988
0.069988
0.068991
0.065003
0.057984
0.049967
0.045980
0.042989
0.041993
0.039999
0.038005
0.034973
0.027995
0.021972
0.017985
0.018982
0.020976
0.017985
0.007975
0.000000
0.002991
0.009969
0.013001
0.013998
0.013998
0.013001
0.011007
0.012004
0.013001
0.009969
0.004984
0.004984
0.011007
0.016988
0.014994
0.006978
0.003987
0.009969
0.014994
0.008972
0.000000
0.000000
0.008972
0.013001
0.009969
0.006978
0.008972
0.008972
0.003987
0.000000
-0.001994
-0.001994
-0.005026
-0.004029
-0.000997
0.000997
0.001994
0.003987
0.006978
0.004984
0.002991
0.005981
0.007975
0.002991
-0.003032
-0.001994
0.002991
0.003987
0.002991
0.002991
0.002991
0.006978
0.005981
-0.013998
-0.044028
-0.056032
-0.050009
-0.039999
-0.025004
-0.009013
-0.006023
-0.013001
-0.001994
0.024008
0.036967
0.029989
0.018982
0.014994
0.015991
0.016988
0.013001
0.013998
0.021972
0.031982
0.031982
0.024008
0.015991
0.014994
0.019979
0.025004
0.022969
0.018982
0.019979
0.026998
0.030986
0.025004
0.018982
0.015991
0.015991
0.013001
0.008972
0.008972
0.013001
0.029989
0.055990
0.041993
-0.180016
-0.794993
-1.619020
-1.982997
-1.409015
-0.327010
0.366968
0.389979
0.180971
0.100973
0.098980
0.064006
0.030986
0.035970
0.052003
0.056987
0.058981
0.065003
0.072978
0.078004
0.080995
0.084982
0.092002
0.097983
0.098980
0.097983
0.097983
0.095989
0.093995
0.091005
0.088969
0.084982
0.078004
0.070985
0.068991
0.066997
0.064006
0.056987
0.049967
0.045980
0.044983
0.044983
0.041993
0.038005
0.036967
0.036967
0.034973
0.030986
0.026998
0.022969
0.020976
0.019979
0.021972
0.022969
0.019979
0.016988
0.017985
0.018982
0.017985
0.015991
0.016988
0.019979
0.020976
0.017985
0.013998
0.014994
0.016988
0.017985
0.016988
0.013998
0.011007
0.008972
0.008972
0.011007
0.013998
0.014994
0.013001
0.009969
0.007975
0.006978
0.006978
0.004984
0.003987
0.003987
0.004984
0.002991
-0.004029
-0.009013
-0.005026
0.003987
0.006978
0.005981
0.005981
0.005981
0.004984
0.003987
0.004984
0.001994
0.001994
0.005981
0.000000
-0.026998
-0.056032
-0.066997
-0.054993
-0.031027
-0.009013
-0.003032
-0.012004
-0.010010
0.012004
0.034973
0.036967
0.025004
0.013001
0.006978
0.005981
0.009969
0.014994
0.016988
0.015991
0.015991
0.017985
0.019979
0.017985
0.013001
0.011007
0.012004
0.013001
0.013001
0.012004
0.008972
0.004984
0.003987
0.004984
0.005981
0.003987
-0.000997
-0.001994
0.003987
0.016988
0.034973
0.036967
-0.115012
-0.642017
-1.461018
-1.955999
-1.546997
-0.503994
0.296980
0.431971
0.243981
0.138978
0.124981
0.084982
0.039999
0.036967
0.049967
0.052003
0.052003
0.057984
0.066000
0.073975
0.079001
0.080995
0.078004
0.075969
0.079998
0.084982
0.084982
0.081991
0.079001
0.079001
0.077007
0.072978
0.068991
0.065003
0.060974
0.056987
0.052003
0.044983
0.041993
0.040996
0.038005
0.034973
0.032979
0.029989
0.026001
0.021972
0.018982
0.016988
0.017985
0.019979
0.019979
0.018982
0.019979
0.021972
0.020976
0.015991
0.012004
0.014994
0.019979
0.018982
0.013998
0.012004
0.014994
0.016988
0.016988
0.013998
0.011007
0.008972
0.007975
0.007975
0.008972
0.006978
0.002991
0.000997
0.001994
0.002991
0.000000
-0.000997
0.000997
0.001994
0.001994
0.000000
-0.000997
-0.001994
-0.001994
-0.001994
-0.001994
0.000000
0.001994
0.002991
0.001994
0.000997
-0.000997
-0.003032
-0.001994
0.000997
0.003987
0.004984
0.003987
0.003987
0.004984
0.006978
0.007975
0.006978
-0.000997
-0.020020
-0.046022
-0.062013
-0.053000
-0.024008
-0.000997
0.000000
-0.009013
-0.001994
0.017985
0.029989
0.024008
0.009969
0.003987
0.008972
0.018982
0.022969
0.019979
0.017985
0.016988
0.016988
0.015991
0.013998
0.013001
0.013001
0.012004
0.012004
0.012004
0.012004
0.012004
0.013001
0.015991
0.014994
0.009969
0.004984
0.002991
-0.001994
-0.004029
0.007975
0.031982
0.049967
-0.010010
-0.333033
-1.037022
-1.771996
-1.840031
-1.035028
-0.032024
0.418971
0.332992
0.173993
0.138978
0.119000
0.065003
0.034973
0.042989
0.053996
0.055990
0.058981
0.064006
0.069988
0.073975
0.080995
0.086976
0.087973
0.084982
0.084982
0.091005
0.091005
0.083985
0.079998
0.079998
0.079001
0.074972
0.072978
0.069988
0.066000
0.058981
0.052003
0.044983
0.040996
0.039999
0.041993
0.039999
0.034973
0.030986
0.029989
0.030986
0.031982
0.029989
0.024008
0.016988
0.015991
0.020976
0.025004
0.024008
0.022969
0.026001
0.026998
0.025004
0.019979
0.016988
0.016988
0.018982
0.021972
0.022969
0.019979
0.017985
0.019979
0.020976
0.018982
0.015991
0.020976
0.025004
0.020976
0.013998
0.014994
0.019979
0.017985
0.012004
0.002991
-0.000997
0.003987
0.014994
0.020976
0.015991
0.008972
0.006978
0.008972
0.006978
0.001994
0.000997
0.007975
0.012004
0.006978
-0.000997
-0.001994
0.005981
0.015991
0.019979
0.015991
0.013001
0.011007
0.000000
-0.023011
-0.045025
-0.049012
-0.031027
-0.006023
0.003987
-0.003032
-0.005026
0.012004
0.033976
0.043986
0.038005
0.026001
0.016988
0.015991
0.021972
0.027995
0.033976
0.035970
0.028992
0.021972
0.024008
0.030986
0.032979
0.027995
0.022969
0.019979
0.018982
0.020976
0.024008
0.025004
0.022969
0.019979
0.018982
0.019979
0.019979
0.017985
0.013998
0.015991
0.039999
0.070985
-0.000997
-0.375026
-1.123000
-1.853032
-1.877995
-1.022027
0.013001
0.454982
0.329004
0.144004
0.107993
0.097983
0.053000
0.030986
0.040996
0.049967
0.052003
0.057984
0.066997
0.072978
0.078004
0.081991
0.086976
0.092002
0.095989
0.098980
0.097983
0.096986
0.095989
0.093995
0.088969
0.081991
0.077007
0.072978
0.068991
0.065003
0.060974
0.055990
0.048971
0.042989
0.041993
0.041993
0.041993
0.039999
0.034973
0.032979
0.031982
0.032979
0.032979
0.031982
0.029989
0.026998
0.024008
0.020976
0.014994
0.011007
0.013001
0.019979
0.022969
0.020976
0.018982
0.017985
0.017985
0.017985
0.016988
0.015991
0.014994
0.015991
0.015991
0.015991
0.015991
0.015991
0.013998
0.012004
0.009969
0.008972
0.007975
0.007975
0.007975
0.005981
0.004984
0.005981
0.005981
0.002991
0.000000
-0.000997
0.000997
0.005981
0.009969
0.009969
0.006978
0.004984
0.004984
0.004984
0.004984
0.002991
0.001994
0.004984
0.005981
0.003987
0.000997
0.000997
0.001994
-0.007020
-0.027995
-0.051006
-0.056032
-0.035015
-0.007020
0.006978
0.002991
-0.005026
-0.000997
0.012004
0.018982
0.013001
0.004984
0.004984
0.009969
0.013998
0.014994
0.015991
0.014994
0.013001
0.013001
0.013998
0.014994
0.013001
0.011007
0.008972
0.009969
0.009969
0.006978
0.004984
0.004984
0.005981
0.004984
0.002991
-0.000997
0.000000
0.003987
-0.000997
-0.007020
0.011007
0.048971
0.039002
-0.155011
-0.674000
-1.433023
-1.902002
-1.528015
-0.516995
0.285973
0.429977
0.242984
0.136985
0.124981
0.081991
0.031982
0.027995
0.044983
0.049967
0.049967
0.056987
0.065003
0.066997
0.067994
0.072978
0.077007
0.078004
0.078004
0.079998
0.079998
0.078004
0.073975
0.071981
0.069988
0.066997
0.062968
0.059978
0.055990
0.052003
0.046977
0.041993
0.035970
0.030986
0.027995
0.026998
0.026001
0.022969
0.020976
0.019979
0.019979
0.019979
0.019979
0.017985
0.016988
0.015991
0.014994
0.013001
0.011007
0.012004
0.012004
0.009969
0.007975
0.008972
0.009969
0.009969
0.009969
0.009969
0.008972
0.007975
0.009969
0.013001
0.009969
0.003987
0.000997
0.001994
0.002991
0.001994
0.000997
0.000000
-0.001994
-0.001994
0.000997
0.000997
-0.000997
-0.001994
-0.001994
-0.005026
-0.008016
-0.005026
-0.001994
-0.005026
-0.011007
-0.012004
-0.009013
-0.006023
-0.005026
-0.004029
-0.003032
-0.001994
-0.003032
-0.003032
-0.001994
-0.000997
0.000000
-0.001994
-0.005026
-0.004029
-0.001994
-0.013001
-0.038005
-0.062013
-0.064006
-0.039999
-0.009013
0.003987
-0.007020
-0.019023
-0.013001
0.002991
0.009969
0.004984
-0.001994
-0.000997
0.003987
0.006978
0.008972
0.007975
0.004984
0.001994
0.000997
0.003987
0.004984
0.005981
0.005981
0.004984
0.001994
0.001994
0.003987
0.001994
-0.003032
-0.006023
-0.006023
-0.006023
-0.006023
-0.007020
-0.012004
-0.010010
0.014994
0.044983
-0.021017
-0.365016
-1.057000
-1.756004
-1.817020
-1.035028
-0.041993
0.418971
0.334985
0.167970
0.124981
0.104005
0.052003
0.021972
0.026998
0.039002
0.042989
0.046977
0.053000
0.060974
0.066000
0.066997
0.066997
0.067994
0.073975
0.079998
0.082988
0.077007
0.067994
0.064006
0.066997
0.068991
0.066000
0.061971
0.056987
0.052003
0.052003
0.049967
0.041993
0.033976
0.029989
0.029989
0.029989
0.027995
0.021972
0.014994
0.013998
0.017985
0.019979
0.015991
0.011007
0.007975
0.008972
0.013998
0.019979
0.016988
0.007975
0.000997
0.003987
0.013998
0.020976
0.016988
0.008972
0.004984
0.008972
0.013001
0.008972
0.003987
0.004984
0.009969
0.008972
0.004984
0.006978
0.011007
0.009969
0.003987
0.000000
0.000000
0.000997
0.001994
0.003987
0.003987
0.002991
0.001994
0.000997
0.001994
0.002991
0.002991
0.001994
0.003987
0.006978
0.007975
0.004984
0.001994
0.000997
-0.001994
-0.003032
0.000000
0.003987
0.004984
0.005981
0.005981
-0.007020
-0.035015
-0.053000
-0.046022
-0.027995
-0.016033
-0.011007
-0.012004
-0.010010
0.004984
0.026998
0.034973
0.027995
0.019979
0.014994
0.013998
0.015991
0.020976
0.022969
0.022969
0.024008
0.024008
0.020976
0.018982
0.019979
0.018982
0.016988
0.014994
0.014994
0.014994
0.013998
0.013001
0.012004
0.012004
0.011007
0.012004
0.009969
0.001994
-0.001994
0.015991
0.042989
0.042989
-0.044028
-0.390020
-1.131017
-1.906031
-1.942001
-1.019992
0.062968
0.476996
0.308984
0.122987
0.105002
0.095989
0.039002
0.011007
0.026998
0.040996
0.039999
0.043986
0.054993
0.062968
0.066000
0.069988
0.074972
0.079998
0.081991
0.081991
0.080995
0.080995
0.079998
0.075969
0.069988
0.064006
0.061971
0.060974
0.054993
0.045980
0.040996
0.040996
0.040996
0.036967
0.031982
0.028992
0.026998
0.025004
0.024008
0.022969
0.018982
0.013998
0.012004
0.011007
0.011007
0.009969
0.011007
0.012004
0.012004
0.009969
0.008972
0.008972
0.008972
0.011007
0.012004
0.008972
0.003987
0.000000
0.000000
0.001994
0.001994
0.003987
0.007975
0.007975
0.002991
0.000000
0.000997
0.001994
0.000997
-0.000997
-0.001994
-0.005026
-0.008016
-0.009013
-0.009013
-0.009013
-0.011007
-0.013001
-0.013998
-0.012004
-0.007020
-0.005026
-0.004029
-0.003032
-0.004029
-0.006023
-0.007020
-0.005026
-0.001994
-0.001994
-0.003032
-0.001994
-0.001994
-0.004029
-0.005026
-0.003032
0.000000
-0.006023
-0.026998
-0.053000
-0.067994
-0.057029
-0.026001
-0.001994
-0.001994
-0.013001
-0.013001
-0.000997
0.006978
0.002991
-0.004029
-0.005026
0.000997
0.005981
0.006978
0.006978
0.009969
0.012004
0.009969
0.005981
0.005981
0.007975
0.006978
0.002991
0.000000
0.000000
0.000000
-0.004029
-0.006023
-0.005026
-0.004029
-0.006023
-0.011007
-0.013001
-0.014994
-0.013998
-0.001994
0.019979
0.031982
-0.022014
-0.317000
-0.997023
-1.760033
-1.894028
-1.121007
-0.085024
0.413986
0.338973
0.167970
0.128968
0.111980
0.054993
0.020976
0.028992
0.041993
0.044983
0.046977
0.051006
0.055990
0.061971
0.064006
0.065003
0.066997
0.067994
0.067994
0.069988
0.072978
0.071981
0.067994
0.064006
0.062968
0.062968
0.058981
0.049967
0.042989
0.039999
0.039002
0.035970
0.028992
0.022969
0.019979
0.019979
0.019979
0.019979
0.017985
0.013001
0.008972
0.007975
0.008972
0.007975
0.003987
0.001994
0.002991
0.003987
0.003987
0.003987
0.004984
0.004984
0.004984
0.004984
0.004984
0.004984
0.004984
0.000000
-0.004029
-0.003032
0.000000
-0.000997
-0.005026
-0.006023
-0.007020
-0.006023
-0.004029
-0.001994
-0.004029
-0.005026
-0.005026
-0.008016
-0.011007
-0.012004
-0.012004
-0.013001
-0.014994
-0.014994
-0.016033
-0.017030
-0.016033
-0.013001
-0.013001
-0.013998
-0.013998
-0.011007
-0.008016
-0.009013
-0.013001
-0.014994
-0.011007
-0.007020
-0.006023
-0.005026
-0.003032
-0.004029
-0.008016
-0.012004
-0.022014
-0.044028
-0.063010
-0.060019
-0.036011
-0.010010
-0.005026
-0.013001
-0.014994
-0.003032
0.007975
0.006978
-0.000997
-0.005026
-0.005026
0.000000
0.003987
0.006978
0.007975
0.005981
0.000997
-0.005026
-0.004029
0.000997
0.004984
0.003987
-0.000997
-0.005026
-0.005026
-0.003032
-0.003032
-0.004029
-0.007020
-0.012004
-0.013001
-0.006023
-0.004029
-0.011007
-0.007020
0.022969
0.040996
-0.090008
-0.551012
-1.312029
-1.885014
-1.675010
-0.740997
0.146995
0.418971
0.268985
0.138978
0.118003
0.080995
0.022969
0.014994
0.039999
0.049967
0.042989
0.043986
0.054993
0.065003
0.067994
0.069988
0.071981
0.070985
0.068991
0.070985
0.074972
0.070985
0.060974
0.058981
0.066997
0.069988
0.061971
0.054993
0.054993
0.049967
0.036967
0.026998
0.026998
0.032979
0.033976
0.028992
0.022969
0.020976
0.025004
0.026998
0.021972
0.014994
0.013998
0.017985
0.020976
0.018982
0.014994
0.009969
0.005981
0.004984
0.007975
0.014994
0.016988
0.011007
0.005981
0.007975
0.013001
0.013001
0.009969
0.008972
0.008972
0.007975
0.006978
0.013998
0.020976
0.014994
0.000997
-0.001994
0.007975
0.014994
0.009969
0.002991
0.000997
0.003987
0.006978
0.006978
0.004984
0.002991
0.004984
0.007975
0.006978
0.002991
-0.000997
-0.001994
0.000997
0.003987
0.003987
0.002991
0.002991
0.003987
0.004984
0.005981
0.008972
0.011007
-0.004029
-0.036011
-0.057029
-0.049012
-0.031027
-0.018026
-0.013001
-0.014994
-0.019023
-0.009013
0.017985
0.035970
0.032979
0.020976
0.014994
0.013001
0.012004
0.013001
0.015991
0.019979
0.020976
0.018982
0.015991
0.015991
0.014994
0.013001
0.012004
0.012004
0.013001
0.013998
0.012004
0.008972
0.007975
0.007975
0.004984
0.001994
0.000997
-0.000997
-0.001994
0.008972
0.027995
0.038005
0.000997
-0.241032
-0.893017
-1.748030
-2.049994
-1.340024
-0.193016
0.440984
0.383001
0.158002
0.097983
0.100973
0.056987
0.016988
0.020976
0.036967
0.042989
0.044983
0.051006
0.056987
0.062968
0.066997
0.069988
0.073975
0.075969
0.075969
0.078004
0.079001
0.079001
0.075969
0.071981
0.066997
0.061971
0.055990
0.051006
0.047974
0.047974
0.045980
0.039002
0.031982
0.029989
0.030986
0.029989
0.026998
0.024008
0.022969
0.021972
0.018982
0.015991
0.014994
0.014994
0.013001
0.008972
0.004984
0.004984
0.006978
0.006978
0.006978
0.007975
0.011007
0.012004
0.009969
0.008972
0.009969
0.008972
0.004984
0.001994
0.001994
0.006978
0.007975
0.004984
0.002991
0.004984
0.005981
0.002991
0.000000
-0.000997
-0.000997
-0.001994
-0.005026
-0.006023
-0.007020
-0.008016
-0.010010
-0.013001
-0.013998
-0.012004
-0.008016
-0.007020
-0.008016
-0.009013
-0.010010
-0.009013
-0.006023
-0.004029
-0.001994
-0.001994
-0.004029
-0.005026
-0.005026
-0.007020
-0.008016
-0.001994
-0.000997
-0.020020
-0.051006
-0.070029
-0.060019
-0.032024
-0.009013
-0.006023
-0.014994
-0.014994
-0.000997
0.012004
0.009969
-0.000997
-0.006023
-0.001994
0.004984
0.008972
0.008972
0.008972
0.008972
0.007975
0.004984
0.000997
-0.001994
-0.000997
0.001994
0.001994
0.000000
0.000000
0.000000
-0.001994
-0.004029
-0.003032
-0.005026
-0.009013
-0.012004
-0.016033
-0.018026
0.000997
0.034973
0.036967
-0.091005
-0.511014
-1.254004
-1.883021
-1.735029
-0.790009
0.146995
0.436997
0.275008
0.135988
0.119000
0.092002
0.036967
0.016988
0.030986
0.043986
0.049967
0.053996
0.056987
0.058981
0.060974
0.065003
0.069988
0.071981
0.071981
0.071981
0.073975
0.075969
0.075969
0.073975
0.068991
0.062968
0.057984
0.054993
0.051006
0.045980
0.042989
0.040996
0.036967
0.029989
0.025004
0.024008
0.022969
0.019979
0.013998
0.009969
0.011007
0.013998
0.013001
0.008972
0.007975
0.008972
0.006978
0.005981
0.006978
0.006978
0.002991
0.001994
0.004984
0.007975
0.008972
0.007975
0.004984
0.002991
0.001994
0.002991
0.001994
0.000997
-0.000997
-0.001994
-0.001994
-0.001994
-0.001994
-0.001994
-0.003032
-0.005026
-0.005026
-0.003032
0.000000
-0.001994
-0.009013
-0.013001
-0.010010
-0.005026
-0.008016
-0.013998
-0.013001
-0.007020
-0.004029
-0.005026
-0.008016
-0.008016
-0.007020
-0.006023
-0.008016
-0.010010
-0.008016
-0.001994
-0.001994
-0.008016
-0.010010
-0.009013
-0.010010
-0.013001
-0.018026
-0.034018
-0.059022
-0.066997
-0.046022
-0.016033
0.000997
0.000000
-0.010010
-0.013001
-0.001994
0.006978
0.003987
-0.001994
0.000000
0.004984
0.008972
0.011007
0.012004
0.008972
0.005981
0.005981
0.006978
0.002991
-0.003032
-0.001994
0.003987
0.009969
0.011007
0.005981
0.000997
0.001994
0.004984
0.002991
-0.004029
-0.012004
-0.014994
-0.009013
0.005981
0.022969
0.036967
0.012004
-0.229028
-0.877026
-1.695030
-1.964015
-1.293006
-0.231022
0.374984
0.369003
0.193972
0.132000
0.108990
0.055990
0.022969
0.031982
0.044983
0.044983
0.045980
0.054993
0.065003
0.067994
0.069988
0.073975
0.079998
0.080995
0.079001
0.080995
0.082988
0.082988
0.082988
0.083985
0.082988
0.074972
0.066000
0.062968
0.062968
0.054993
0.040996
0.036967
0.043986
0.045980
0.038005
0.030986
0.031982
0.034973
0.036967
0.036967
0.031982
0.024008
0.021972
0.027995
0.031982
0.026998
0.022969
0.021972
0.020976
0.019979
0.022969
0.024008
0.022969
0.021972
0.025004
0.027995
0.026001
0.019979
0.016988
0.019979
0.022969
0.021972
0.019979
0.022969
0.022969
0.018982
0.015991
0.018982
0.020976
0.019979
0.018982
0.016988
0.014994
0.014994
0.016988
0.015991
0.012004
0.009969
0.012004
0.015991
0.018982
0.019979
0.016988
0.011007
0.005981
0.007975
0.013001
0.014994
0.014994
0.013998
0.015991
0.020976
0.017985
-0.004029
-0.034018
-0.046022
-0.038005
-0.022014
-0.005026
0.002991
-0.005026
-0.012004
0.004984
0.031982
0.042989
0.038005
0.027995
0.022969
0.020976
0.021972
0.022969
0.022969
0.024008
0.026998
0.027995
0.026001
0.024008
0.025004
0.024008
0.020976
0.016988
0.015991
0.016988
0.015991
0.013998
0.015991
0.018982
0.018982
0.013001
0.007975
0.005981
0.006978
0.013001
0.029989
0.051006
-0.000997
-0.323023
-1.039015
-1.811995
-1.928004
-1.123000
-0.060019
0.441981
0.343999
0.153973
0.111980
0.099976
0.051006
0.025004
0.036967
0.047974
0.048971
0.053000
0.060974
0.066000
0.071981
0.078004
0.083985
0.084982
0.084982
0.084982
0.084982
0.085979
0.085979
0.084982
0.080995
0.078004
0.074972
0.070985
0.066000
0.060974
0.057984
0.053996
0.049967
0.045980
0.040996
0.033976
0.029989
0.030986
0.031982
0.027995
0.024008
0.024008
0.024008
0.020976
0.018982
0.017985
0.015991
0.013998
0.015991
0.019979
0.020976
0.018982
0.016988
0.017985
0.019979
0.019979
0.019979
0.017985
0.014994
0.013998
0.013998
0.012004
0.007975
0.005981
0.006978
0.007975
0.007975
0.006978
0.006978
0.008972
0.009969
0.009969
0.007975
0.006978
0.006978
0.005981
0.000997
-0.001994
-0.000997
-0.001994
-0.003032
0.001994
0.008972
0.006978
-0.000997
-0.005026
-0.001994
0.002991
0.004984
0.004984
0.004984
0.005981
0.004984
0.001994
-0.000997
-0.000997
0.001994
0.003987
0.001994
-0.010010
-0.033021
-0.057029
-0.063010
-0.041993
-0.009013
0.006978
-0.003032
-0.014994
-0.005026
0.015991
0.022969
0.013998
0.003987
0.003987
0.006978
0.008972
0.012004
0.015991
0.015991
0.013001
0.009969
0.008972
0.008972
0.009969
0.008972
0.006978
0.004984
0.006978
0.011007
0.009969
0.005981
0.001994
0.000997
0.000997
-0.000997
-0.004029
-0.005026
-0.001994
0.004984
0.024008
0.039999
-0.066000
-0.508023
-1.287025
-1.897018
-1.699017
-0.743032
0.168967
0.442978
0.283980
0.149985
0.131004
0.096986
0.040996
0.024008
0.039002
0.048971
0.051006
0.053996
0.057984
0.061971
0.066997
0.071981
0.073975
0.074972
0.075969
0.079001
0.080995
0.080995
0.077007
0.072978
0.068991
0.065003
0.059978
0.055990
0.053000
0.048971
0.046977
0.043986
0.036967
0.028992
0.026998
0.028992
0.028992
0.021972
0.015991
0.013001
0.013998
0.013998
0.014994
0.016988
0.016988
0.014994
0.008972
0.005981
0.007975
0.008972
0.005981
0.001994
0.002991
0.006978
0.008972
0.008972
0.005981
0.003987
0.003987
0.006978
0.008972
0.007975
0.004984
0.003987
0.003987
0.001994
-0.000997
-0.004029
-0.005026
-0.004029
-0.001994
0.000997
0.000997
-0.001994
-0.003032
-0.003032
-0.005026
-0.008016
-0.009013
-0.009013
-0.008016
-0.008016
-0.008016
-0.010010
-0.010010
-0.005026
0.001994
0.000997
-0.006023
-0.008016
-0.001994
0.000997
-0.004029
-0.010010
-0.009013
-0.005026
-0.000997
0.000997
-0.008016
-0.033021
-0.060019
-0.069032
-0.050009
-0.020020
-0.003032
-0.009013
-0.021017
-0.016033
0.001994
0.013001
0.007975
-0.000997
-0.001994
0.004984
0.011007
0.013001
0.013001
0.008972
0.004984
0.002991
0.007975
0.013998
0.013001
0.004984
-0.000997
0.000000
0.004984
0.006978
0.005981
0.001994
-0.004029
-0.009013
-0.008016
-0.001994
-0.000997
-0.013001
-0.018026
0.009969
0.048971
0.034973
-0.145001
-0.648995
-1.426003
-1.932033
-1.571004
-0.541999
0.276005
0.410996
0.209008
0.107993
0.113974
0.083985
0.031982
0.022969
0.039999
0.046977
0.044983
0.049967
0.060974
0.067994
0.068991
0.068991
0.072978
0.079998
0.083985
0.081991
0.081991
0.083985
0.081991
0.074972
0.069988
0.070985
0.072978
0.069988
0.060974
0.054993
0.052003
0.051006
0.047974
0.042989
0.036967
0.027995
0.021972
0.021972
0.026998
0.028992
0.026001
0.020976
0.016988
0.014994
0.015991
0.019979
0.022969
0.019979
0.015991
0.015991
0.018982
0.019979
0.020976
0.020976
0.018982
0.015991
0.015991
0.015991
0.013998
0.013001
0.013001
0.015991
0.015991
0.015991
0.016988
0.015991
0.012004
0.008972
0.011007
0.012004
0.009969
0.008972
0.009969
0.009969
0.005981
0.003987
0.005981
0.009969
0.012004
0.007975
0.001994
-0.001994
-0.001994
-0.000997
0.001994
0.003987
0.004984
0.004984
0.006978
0.007975
0.009969
0.004984
-0.018026
-0.050009
-0.066997
-0.062013
-0.046022
-0.028992
-0.020020
-0.023011
-0.024008
-0.005026
0.024008
0.034973
0.027995
0.018982
0.014994
0.011007
0.009969
0.013998
0.019979
0.021972
0.018982
0.015991
0.016988
0.017985
0.013001
0.004984
0.002991
0.006978
0.012004
0.009969
0.006978
0.005981
0.006978
0.007975
0.006978
0.002991
-0.000997
-0.000997
-0.003032
-0.006023
0.005981
0.038005
0.041993
-0.103009
-0.566007
-1.338031
-1.938014
-1.726016
-0.743032
0.188987
0.449998
0.266991
0.121990
0.105999
0.079001
0.027995
0.013001
0.027995
0.038005
0.041993
0.049967
0.057984
0.061971
0.065003
0.068991
0.071981
0.073975
0.073975
0.074972
0.078004
0.079998
0.077007
0.070985
0.066000
0.064006
0.059978
0.053996
0.048971
0.045980
0.041993
0.035970
0.031982
0.028992
0.026998
0.025004
0.021972
0.018982
0.015991
0.015991
0.016988
0.014994
0.011007
0.009969
0.009969
0.008972
0.005981
0.003987
0.003987
0.004984
0.004984
0.002991
0.001994
0.001994
0.003987
0.005981
0.005981
0.004984
0.002991
0.001994
0.001994
0.001994
-0.000997
-0.004029
-0.005026
-0.001994
-0.001994
-0.005026
-0.010010
-0.011007
-0.009013
-0.007020
-0.006023
-0.006023
-0.008016
-0.011007
-0.013001
-0.013001
-0.013001
-0.012004
-0.008016
-0.005026
-0.006023
-0.009013
-0.011007
-0.011007
-0.009013
-0.007020
-0.008016
-0.011007
-0.012004
-0.010010
-0.009013
-0.011007
-0.013001
-0.012004
-0.009013
-0.020020
-0.049012
-0.074017
-0.073020
-0.052003
-0.027995
-0.013001
-0.012004
-0.016033
-0.009013
0.012004
0.025004
0.016988
0.002991
-0.004029
-0.001994
0.000997
0.002991
0.004984
0.009969
0.013001
0.007975
0.001994
-0.000997
0.000997
0.001994
0.002991
0.001994
-0.001994
-0.007020
-0.009013
-0.005026
-0.000997
-0.001994
-0.007020
-0.011007
-0.009013
-0.010010
-0.014994
-0.001994
0.028992
0.039002
-0.059022
-0.423996
-1.135004
-1.831018
-1.823001
-0.951001
0.047974
0.438991
0.308984
0.149985
0.122987
0.101970
0.048971
0.022969
0.032979
0.041993
0.043986
0.047974
0.055990
0.060974
0.064006
0.066997
0.068991
0.070985
0.070985
0.070985
0.069988
0.069988
0.069988
0.071981
0.073975
0.072978
0.066997
0.057984
0.049967
0.044983
0.040996
0.038005
0.034973
0.031982
0.026998
0.020976
0.017985
0.016988
0.016988
0.016988
0.014994
0.012004
0.008972
0.005981
0.005981
0.005981
0.004984
0.003987
0.002991
0.002991
0.002991
0.003987
0.005981
0.008972
0.009969
0.007975
0.003987
0.001994
0.001994
0.002991
0.000997
0.000000
0.000000
-0.000997
-0.004029
-0.004029
-0.000997
-0.001994
-0.005026
-0.007020
-0.005026
-0.003032
-0.007020
-0.012004
-0.012004
-0.008016
-0.006023
-0.010010
-0.013998
-0.014994
-0.013998
-0.013001
-0.011007
-0.009013
-0.011007
-0.013001
-0.013001
-0.009013
-0.005026
-0.005026
-0.005026
-0.001994
0.000000
-0.000997
-0.004029
-0.007020
-0.009013
-0.012004
-0.020020
-0.039002
-0.060019
-0.064006
-0.043031
-0.017030
-0.009013
-0.017030
-0.020020
-0.004029
0.018982
0.026001
0.014994
0.004984
0.004984
0.008972
0.008972
0.009969
0.013001
0.013998
0.011007
0.012004
0.014994
0.012004
0.002991
-0.001994
0.000997
0.006978
0.011007
0.009969
0.007975
0.005981
0.000997
-0.005026
-0.005026
-0.001994
-0.007020
-0.012004
-0.001994
0.019979
0.038005
0.017985
-0.198001
-0.812023
-1.644024
-2.005011
-1.419025
-0.335027
0.358993
0.394008
0.197004
0.118003
0.108990
0.066000
0.026001
0.025004
0.036967
0.041993
0.045980
0.052003
0.059978
0.067994
0.072978
0.073975
0.077007
0.080995
0.081991
0.079001
0.077007
0.079001
0.081991
0.079001
0.070985
0.064006
0.059978
0.057984
0.054993
0.049967
0.045980
0.043986
0.043986
0.043986
0.038005
0.029989
0.025004
0.026001
0.026998
0.024008
0.018982
0.016988
0.021972
0.029989
0.029989
0.019979
0.013998
0.019979
0.028992
0.027995
0.018982
0.012004
0.013001
0.018982
0.020976
0.017985
0.015991
0.016988
0.018982
0.017985
0.016988
0.018982
0.019979
0.015991
0.013001
0.012004
0.013001
0.013001
0.011007
0.009969
0.008972
0.008972
0.006978
0.006978
0.006978
0.008972
0.011007
0.013001
0.009969
0.005981
0.004984
0.006978
0.009969
0.012004
0.009969
0.006978
0.004984
0.006978
0.006978
0.004984
0.003987
-0.006023
-0.030030
-0.056032
-0.065003
-0.053996
-0.032024
-0.013001
-0.009013
-0.013998
-0.009013
0.012004
0.029989
0.033976
0.026998
0.016988
0.011007
0.009969
0.012004
0.014994
0.016988
0.018982
0.017985
0.016988
0.016988
0.015991
0.013001
0.011007
0.012004
0.013001
0.012004
0.007975
0.004984
0.003987
0.006978
0.006978
0.002991
-0.001994
-0.003032
-0.000997
-0.001994
0.001994
0.025004
0.043986
-0.073020
-0.521024
-1.295997
-1.920029
-1.754011
-0.799022
0.151979
0.453985
0.279992
0.120993
0.099976
0.082988
0.035970
0.017985
0.030986
0.041993
0.043986
0.048971
0.055990
0.059978
0.064006
0.068991
0.070985
0.071981
0.072978
0.077007
0.079001
0.077007
0.070985
0.068991
0.069988
0.071981
0.068991
0.061971
0.053996
0.048971
0.044983
0.039999
0.034973
0.031982
0.030986
0.029989
0.026001
0.021972
0.017985
0.015991
0.014994
0.014994
0.014994
0.014994
0.013998
0.009969
0.005981
0.003987
0.004984
0.004984
0.004984
0.006978
0.008972
0.005981
0.000997
-0.000997
0.001994
0.003987
0.000997
-0.001994
-0.001994
-0.001994
-0.001994
-0.001994
-0.001994
-0.003032
-0.004029
-0.006023
-0.008016
-0.009013
-0.007020
-0.004029
-0.004029
-0.006023
-0.007020
-0.005026
-0.005026
-0.007020
-0.010010
-0.012004
-0.012004
-0.013001
-0.013998
-0.016033
-0.013998
-0.013001
-0.011007
-0.011007
-0.011007
-0.012004
-0.011007
-0.009013
-0.008016
-0.010010
-0.013998
-0.013998
-0.011007
-0.013001
-0.031027
-0.061016
-0.082033
-0.076010
-0.045025
-0.013998
-0.007020
-0.018026
-0.019023
-0.000997
0.016988
0.014994
0.001994
-0.009013
-0.011007
-0.004029
0.001994
0.003987
0.002991
0.002991
0.003987
0.001994
0.000000
-0.000997
-0.001994
-0.004029
-0.007020
-0.009013
-0.009013
-0.008016
-0.006023
-0.005026
-0.006023
-0.011007
-0.013998
-0.013001
-0.011007
-0.012004
-0.009013
0.000997
0.019979
0.027995
-0.099021
-0.578011
-1.374998
-1.925013
-1.616029
-0.619006
0.224002
0.417974
0.247968
0.135988
0.118003
0.077007
0.025004
0.015991
0.031982
0.039002
0.041993
0.047974
0.053996
0.056987
0.061971
0.065003
0.065003
0.066000
0.067994
0.069988
0.068991
0.066997
0.067994
0.067994
0.065003
0.059978
0.055990
0.053996
0.051006
0.043986
0.036967
0.031982
0.030986
0.027995
0.024008
0.019979
0.017985
0.018982
0.019979
0.016988
0.013998
0.011007
0.009969
0.007975
0.003987
-0.000997
-0.001994
-0.000997
0.000997
0.000997
0.001994
0.001994
0.000997
0.000000
0.000000
0.000997
0.001994
0.000000
-0.005026
-0.006023
-0.003032
0.000000
-0.001994
-0.003032
-0.004029
-0.006023
-0.009013
-0.009013
-0.007020
-0.009013
-0.011007
-0.010010
-0.008016
-0.009013
-0.010010
-0.012004
-0.013001
-0.014994
-0.016033
-0.016033
-0.014994
-0.016033
-0.019023
-0.019023
-0.016033
-0.016033
-0.017030
-0.011007
0.000997
0.003987
-0.004029
-0.011007
-0.011007
-0.007020
-0.007020
-0.010010
-0.009013
-0.006023
-0.014994
-0.040996
-0.067994
-0.072023
-0.052003
-0.024008
-0.009013
-0.012004
-0.020020
-0.014994
0.000997
0.011007
0.007975
-0.003032
-0.010010
-0.006023
0.001994
0.004984
0.003987
0.002991
0.001994
-0.004029
-0.007020
-0.004029
0.000000
0.001994
0.003987
0.006978
0.006978
0.000997
-0.005026
-0.006023
-0.006023
-0.009013
-0.011007
-0.008016
-0.005026
-0.012004
-0.013001
0.008972
0.041993
0.026001
-0.165021
-0.695017
-1.485026
-1.959031
-1.536031
-0.477993
0.316004
0.419967
0.211998
0.111980
0.107993
0.071981
0.026001
0.022969
0.038005
0.043986
0.046977
0.053000
0.055990
0.059978
0.066997
0.075969
0.079001
0.078004
0.078004
0.079998
0.081991
0.081991
0.079001
0.078004
0.077007
0.072978
0.066997
0.062968
0.062968
0.055990
0.043986
0.035970
0.038005
0.042989
0.045980
0.044983
0.038005
0.029989
0.025004
0.025004
0.026001
0.022969
0.018982
0.018982
0.021972
0.024008
0.024008
0.026001
0.027995
0.026998
0.024008
0.022969
0.022969
0.020976
0.017985
0.017985
0.020976
0.021972
0.019979
0.017985
0.020976
0.022969
0.021972
0.021972
0.022969
0.019979
0.015991
0.014994
0.016988
0.015991
0.013001
0.012004
0.013998
0.014994
0.013001
0.012004
0.012004
0.012004
0.011007
0.008972
0.006978
0.006978
0.008972
0.008972
0.008972
0.008972
0.009969
0.011007
0.008972
0.007975
0.009969
0.012004
0.000000
-0.026998
-0.049012
-0.052003
-0.038005
-0.014994
0.001994
0.000000
-0.008016
0.003987
0.029989
0.039999
0.029989
0.017985
0.013998
0.013998
0.015991
0.020976
0.026001
0.026998
0.024008
0.020976
0.019979
0.019979
0.017985
0.014994
0.013001
0.013998
0.013001
0.011007
0.012004
0.015991
0.015991
0.013001
0.007975
0.007975
0.008972
0.006978
0.005981
0.014994
0.033976
0.052003
0.008972
-0.275008
-0.958021
-1.756004
-1.957993
-1.221025
-0.143007
0.422003
0.360987
0.166973
0.117006
0.108990
0.059978
0.026001
0.034973
0.051006
0.055990
0.057984
0.062968
0.069988
0.075969
0.079001
0.081991
0.085979
0.087973
0.087973
0.088969
0.091005
0.093995
0.093995
0.088969
0.079998
0.072978
0.070985
0.070985
0.067994
0.059978
0.052003
0.047974
0.046977
0.044983
0.041993
0.036967
0.033976
0.032979
0.032979
0.030986
0.027995
0.026998
0.027995
0.028992
0.027995
0.025004
0.020976
0.018982
0.019979
0.021972
0.021972
0.019979
0.019979
0.020976
0.020976
0.018982
0.015991
0.016988
0.015991
0.015991
0.015991
0.017985
0.016988
0.014994
0.014994
0.017985
0.016988
0.012004
0.007975
0.011007
0.013998
0.014994
0.013998
0.013001
0.013001
0.015991
0.017985
0.014994
0.007975
0.004984
0.008972
0.013001
0.011007
0.007975
0.007975
0.011007
0.013998
0.013998
0.012004
0.009969
0.012004
0.015991
0.015991
0.013001
0.011007
0.012004
0.013001
0.013001
0.008972
-0.005026
-0.030030
-0.046022
-0.038005
-0.013001
0.013001
0.021972
0.012004
0.002991
0.013998
0.032979
0.035970
0.022969
0.014994
0.019979
0.026001
0.026998
0.026998
0.029989
0.032979
0.031982
0.027995
0.022969
0.021972
0.022969
0.024008
0.024008
0.022969
0.020976
0.017985
0.015991
0.016988
0.018982
0.018982
0.014994
0.013998
0.014994
0.013001
0.013001
0.033976
0.069988
0.033976
-0.243025
-0.869010
-1.609010
-1.858016
-1.249020
-0.230025
0.390975
0.400986
0.219973
0.154970
0.143007
0.092002
0.049967
0.052003
0.066997
0.071981
0.074972
0.080995
0.088969
0.092998
0.092002
0.092002
0.097983
0.105999
0.107993
0.105002
0.099976
0.096986
0.093995
0.092998
0.092998
0.092002
0.087973
0.082988
0.079001
0.077007
0.071981
0.064006
0.056987
0.054993
0.053000
0.048971
0.045980
0.043986
0.043986
0.041993
0.039999
0.039999
0.039999
0.039002
0.038005
0.038005
0.038005
0.036967
0.034973
0.032979
0.033976
0.034973
0.035970
0.033976
0.030986
0.029989
0.031982
0.034973
0.036967
0.035970
0.033976
0.033976
0.033976
0.032979
0.030986
0.030986
0.032979
0.032979
0.028992
0.025004
0.024008
0.026001
0.026998
0.025004
0.022969
0.022969
0.021972
0.019979
0.019979
0.022969
0.025004
0.024008
0.024008
0.024008
0.020976
0.019979
0.026998
0.035970
0.038005
0.032979
0.029989
0.031982
0.031982
0.028992
0.026001
0.028992
0.034973
0.033976
0.015991
-0.013001
-0.032024
-0.025004
0.000997
0.024008
0.030986
0.026001
0.020976
0.027995
0.042989
0.049967
0.043986
0.036967
0.039999
0.044983
0.045980
0.044983
0.042989
0.041993
0.040996
0.040996
0.044983
0.049967
0.049967
0.045980
0.044983
0.048971
0.048971
0.043986
0.034973
0.030986
0.031982
0.035970
0.039002
0.040996
0.038005
0.034973
0.046977
0.075969
0.085979
-0.009013
-0.383001
-1.122004
-1.836999
-1.811995
-0.903027
0.114971
0.495978
0.349980
0.187991
0.162986
0.135988
0.077007
0.059978
0.086976
0.102967
0.104005
0.108990
0.117006
0.118003
0.117006
0.121990
0.127971
0.127971
0.132000
0.137982
0.139975
0.137982
0.138978
0.138978
0.132000
0.119997
0.110983
0.110983
0.113974
0.113974
0.111980
0.109987
0.106996
0.098980
0.085979
0.078004
0.077007
0.075969
0.072978
0.070985
0.075969
0.082988
0.083985
0.078004
0.072978
0.069988
0.070985
0.070985
0.070985
0.070985
0.070985
0.069988
0.068991
0.067994
0.067994
0.066000
0.064006
0.064006
0.066997
0.067994
0.068991
0.067994
0.066997
0.065003
0.064006
0.062968
0.060974
0.060974
0.061971
0.061971
0.060974
0.060974
0.061971
0.060974
0.058981
0.055990
0.054993
0.056987
0.060974
0.062968
0.059978
0.055990
0.055990
0.059978
0.064006
0.061971
0.055990
0.054993
0.055990
0.055990
0.053996
0.054993
0.045980
0.019979
-0.006023
-0.009013
0.007975
0.027995
0.041993
0.041993
0.033976
0.036967
0.058981
0.079998
0.080995
0.068991
0.058981
0.054993
0.058981
0.068991
0.074972
0.074972
0.073975
0.073975
0.072978
0.070985
0.069988
0.068991
0.065003
0.061971
0.061971
0.062968
0.061971
0.059978
0.057984
0.054993
0.052003
0.052003
0.054993
0.053996
0.049967
0.049967
0.061971
0.082988
0.090008
-0.027995
-0.489997
-1.300026
-1.916000
-1.663006
-0.645008
0.267988
0.496975
0.307987
0.173993
0.164980
0.137982
0.085979
0.071981
0.088969
0.102967
0.107993
0.109987
0.110983
0.113974
0.119000
0.122987
0.126975
0.132000
0.135988
0.137982
0.136985
0.134991
0.132000
0.127971
0.121990
0.118003
0.113974
0.105999
0.094992
0.090008
0.091005
0.092002
0.088969
0.084982
0.081991
0.078004
0.073975
0.074972
0.074972
0.072978
0.070985
0.069988
0.067994
0.066000
0.066000
0.066997
0.065003
0.061971
0.060974
0.059978
0.055990
0.052003
0.052003
0.053996
0.054993
0.053996
0.053000
0.053000
0.053000
0.052003
0.052003
0.052003
0.051006
0.046977
0.044983
0.046977
0.048971
0.046977
0.044983
0.045980
0.045980
0.041993
0.038005
0.039999
0.042989
0.041993
0.039002
0.038005
0.039002
0.038005
0.035970
0.038005
0.039002
0.038005
0.035970
0.038005
0.041993
0.042989
0.041993
0.040996
0.039999
0.036967
0.038005
0.041993
0.044983
0.043986
0.041993
0.033976
0.013001
-0.012004
-0.022014
-0.007020
0.022969
0.043986
0.041993
0.030986
0.034973
0.052003
0.062968
0.057984
0.046977
0.041993
0.044983
0.051006
0.053996
0.053000
0.053000
0.054993
0.055990
0.052003
0.047974
0.044983
0.043986
0.044983
0.046977
0.048971
0.047974
0.044983
0.040996
0.038005
0.036967
0.035970
0.035970
0.038005
0.035970
0.033976
0.053000
0.085979
0.074972
-0.098024
-0.582995
-1.331011
-1.843022
-1.536031
-0.550016
0.286970
0.471970
0.290999
0.175987
0.163983
0.125978
0.072978
0.064006
0.080995
0.088969
0.090008
0.095989
0.102967
0.106996
0.111980
0.118003
0.119997
0.115968
0.114971
0.118003
0.120993
0.120993
0.118003
0.113974
0.111980
0.110983
0.107993
0.099976
0.092002
0.086976
0.085979
0.086976
0.084982
0.077007
0.068991
0.066997
0.066997
0.065003
0.058981
0.054993
0.054993
0.056987
0.056987
0.052003
0.047974
0.047974
0.049967
0.049967
0.049967
0.051006
0.053996
0.053996
0.052003
0.051006
0.049967
0.045980
0.041993
0.043986
0.048971
0.048971
0.044983
0.042989
0.040996
0.038005
0.038005
0.040996
0.039999
0.034973
0.036967
0.044983
0.047974
0.042989
0.038005
0.035970
0.036967
0.040996
0.043986
0.042989
0.039999
0.036967
0.032979
0.033976
0.043986
0.049967
0.043986
0.033976
0.032979
0.033976
0.032979
0.030986
0.034973
0.040996
0.042989
0.039999
0.034973
0.033976
0.035970
0.031982
0.013001
-0.013998
-0.026998
-0.012004
0.022969
0.048971
0.046977
0.030986
0.027995
0.044983
0.061971
0.062968
0.052003
0.045980
0.051006
0.058981
0.061971
0.061971
0.062968
0.061971
0.056987
0.055990
0.058981
0.057984
0.053000
0.048971
0.049967
0.053996
0.055990
0.053000
0.046977
0.044983
0.049967
0.052003
0.048971
0.044983
0.043986
0.046977
0.062968
0.092002
0.080995
-0.127016
-0.707021
-1.512024
-1.924016
-1.434020
-0.377019
0.373987
0.452988
0.247968
0.152976
0.145998
0.104005
0.059978
0.062968
0.084982
0.088969
0.084982
0.092002
0.106996
0.119000
0.125978
0.128968
0.130007
0.128968
0.127971
0.128968
0.132000
0.134991
0.131004
0.119997
0.112977
0.114971
0.118003
0.112977
0.104005
0.100973
0.102967
0.101970
0.093995
0.083985
0.079001
0.080995
0.083985
0.081991
0.075969
0.069988
0.066997
0.068991
0.070985
0.068991
0.065003
0.059978
0.057984
0.058981
0.061971
0.062968
0.062968
0.058981
0.054993
0.053000
0.055990
0.058981
0.057984
0.055990
0.056987
0.058981
0.057984
0.053996
0.053000
0.053996
0.053996
0.052003
0.051006
0.049967
0.048971
0.049967
0.052003
0.051006
0.046977
0.045980
0.049967
0.052003
0.045980
0.041993
0.042989
0.044983
0.043986
0.041993
0.041993
0.040996
0.039999
0.039999
0.041993
0.041993
0.039999
0.039002
0.038005
0.035970
0.024008
-0.005026
-0.033021
-0.035015
-0.011007
0.013998
0.026001
0.025004
0.020976
0.027995
0.052003
0.071981
0.070985
0.055990
0.043986
0.041993
0.045980
0.048971
0.048971
0.046977
0.048971
0.053996
0.054993
0.051006
0.046977
0.048971
0.051006
0.048971
0.046977
0.045980
0.044983
0.043986
0.042989
0.044983
0.042989
0.038005
0.032979
0.031982
0.030986
0.029989
0.033976
0.048971
0.072978
0.046977
-0.199994
-0.824027
-1.599000
-1.874007
-1.260027
-0.230025
0.391972
0.400986
0.221967
0.159995
0.147992
0.099976
0.059978
0.061971
0.074972
0.079001
0.080995
0.087973
0.096986
0.105002
0.109987
0.110983
0.111980
0.110983
0.110983
0.110983
0.113974
0.117006
0.117006
0.111980
0.106996
0.102967
0.098980
0.092002
0.088969
0.084982
0.078004
0.069988
0.066000
0.064006
0.060974
0.057984
0.055990
0.052003
0.049967
0.051006
0.053996
0.052003
0.047974
0.043986
0.045980
0.048971
0.047974
0.043986
0.039999
0.039999
0.040996
0.039999
0.034973
0.033976
0.036967
0.041993
0.043986
0.043986
0.041993
0.038005
0.038005
0.041993
0.044983
0.040996
0.036967
0.036967
0.038005
0.034973
0.031982
0.032979
0.033976
0.034973
0.033976
0.031982
0.031982
0.030986
0.030986
0.028992
0.026001
0.024008
0.025004
0.026998
0.026998
0.027995
0.028992
0.031982
0.030986
0.028992
0.026998
0.027995
0.027995
0.027995
0.028992
0.027995
0.026001
0.024008
0.018982
0.000997
-0.025004
-0.041993
-0.038005
-0.013001
0.013998
0.021972
0.014994
0.014994
0.035970
0.059978
0.064006
0.051006
0.039002
0.034973
0.035970
0.038005
0.039999
0.039999
0.040996
0.041993
0.042989
0.039002
0.034973
0.033976
0.038005
0.039002
0.034973
0.029989
0.027995
0.027995
0.028992
0.028992
0.027995
0.022969
0.016988
0.014994
0.014994
0.012004
0.013001
0.036967
0.065003
-0.018026
-0.397995
-1.116022
-1.781009
-1.757998
-0.919019
0.053000
0.460008
0.347986
0.184003
0.149985
0.131004
0.075969
0.044983
0.053996
0.070985
0.077007
0.078004
0.080995
0.087973
0.093995
0.095989
0.097983
0.102967
0.107993
0.109987
0.108990
0.105002
0.098980
0.096986
0.099976
0.098980
0.092998
0.082988
0.077007
0.073975
0.071981
0.068991
0.060974
0.053996
0.051006
0.048971
0.046977
0.043986
0.041993
0.040996
0.039002
0.033976
0.028992
0.030986
0.036967
0.039002
0.038005
0.036967
0.033976
0.031982
0.032979
0.033976
0.029989
0.026001
0.027995
0.031982
0.031982
0.026998
0.022969
0.022969
0.025004
0.026998
0.026998
0.026001
0.025004
0.026001
0.029989
0.030986
0.025004
0.018982
0.018982
0.024008
0.021972
0.012004
0.007975
0.013998
0.019979
0.017985
0.015991
0.016988
0.016988
0.013998
0.013001
0.014994
0.013001
0.008972
0.009969
0.016988
0.020976
0.020976
0.018982
0.015991
0.013998
0.018982
0.027995
0.026998
0.002991
-0.033021
-0.052003
-0.044028
-0.025004
-0.008016
0.001994
-0.003032
-0.009013
0.006978
0.038005
0.053996
0.048971
0.038005
0.029989
0.024008
0.022969
0.026998
0.029989
0.026998
0.026001
0.031982
0.039999
0.040996
0.032979
0.025004
0.024008
0.026998
0.026001
0.025004
0.030986
0.035970
0.030986
0.021972
0.021972
0.026998
0.027995
0.022969
0.017985
0.017985
0.028992
0.053996
0.061971
-0.097027
-0.638030
-1.476012
-1.996995
-1.604025
-0.539009
0.304997
0.451991
0.238996
0.113974
0.105999
0.081991
0.043986
0.038005
0.052003
0.062968
0.067994
0.071981
0.074972
0.081991
0.088969
0.093995
0.099976
0.105999
0.107993
0.107993
0.107993
0.107993
0.105002
0.098980
0.091005
0.085979
0.081991
0.077007
0.070985
0.067994
0.067994
0.068991
0.065003
0.057984
0.052003
0.049967
0.052003
0.051006
0.046977
0.042989
0.040996
0.038005
0.033976
0.030986
0.030986
0.030986
0.029989
0.027995
0.026998
0.026998
0.026998
0.026001
0.026001
0.026998
0.028992
0.030986
0.030986
0.027995
0.025004
0.025004
0.026001
0.026001
0.019979
0.013001
0.012004
0.018982
0.025004
0.024008
0.018982
0.015991
0.015991
0.013998
0.008972
0.004984
0.004984
0.008972
0.012004
0.011007
0.008972
0.009969
0.012004
0.012004
0.009969
0.008972
0.008972
0.011007
0.011007
0.007975
0.005981
0.007975
0.012004
0.014994
0.015991
0.008972
-0.013001
-0.048015
-0.071026
-0.063010
-0.034018
-0.009013
-0.005026
-0.011007
-0.005026
0.016988
0.039002
0.044983
0.035970
0.022969
0.016988
0.015991
0.017985
0.022969
0.027995
0.027995
0.025004
0.022969
0.022969
0.020976
0.017985
0.016988
0.017985
0.017985
0.015991
0.013998
0.012004
0.011007
0.012004
0.013998
0.013001
0.011007
0.012004
0.009969
0.002991
0.003987
0.022969
0.046977
0.032979
-0.148033
-0.683013
-1.480000
-1.935023
-1.488016
-0.440029
0.326969
0.422999
0.226993
0.133994
0.126975
0.083985
0.035970
0.033976
0.048971
0.053000
0.054993
0.062968
0.069988
0.070985
0.072978
0.078004
0.083985
0.085979
0.083985
0.081991
0.084982
0.085979
0.084982
0.080995
0.078004
0.074972
0.070985
0.067994
0.064006
0.057984
0.053000
0.048971
0.044983
0.039002
0.033976
0.028992
0.026998
0.026998
0.026998
0.026998
0.025004
0.022969
0.022969
0.022969
0.021972
0.019979
0.020976
0.024008
0.022969
0.018982
0.017985
0.019979
0.017985
0.014994
0.015991
0.018982
0.019979
0.017985
0.015991
0.015991
0.015991
0.015991
0.015991
0.016988
0.015991
0.012004
0.008972
0.008972
0.009969
0.008972
0.006978
0.005981
0.004984
0.002991
0.000997
0.000000
0.000997
0.001994
0.000000
-0.001994
-0.001994
-0.001994
0.000000
0.002991
0.004984
0.003987
0.005981
0.008972
0.009969
0.008972
0.007975
0.008972
0.008972
0.008972
0.012004
0.011007
-0.007020
-0.043031
-0.070029
-0.065003
-0.039999
-0.019023
-0.010010
-0.011007
-0.013001
0.000997
0.026998
0.041993
0.033976
0.019979
0.013001
0.011007
0.013001
0.016988
0.019979
0.017985
0.016988
0.020976
0.020976
0.014994
0.008972
0.008972
0.011007
0.011007
0.009969
0.012004
0.013001
0.013001
0.012004
0.011007
0.008972
0.005981
0.004984
0.000997
-0.005026
0.000000
0.025004
0.045980
-0.005026
-0.276005
-0.906018
-1.661012
-1.882024
-1.202001
-0.159995
0.412989
0.375981
0.189984
0.132000
0.118003
0.067994
0.032979
0.038005
0.052003
0.055990
0.060974
0.066997
0.071981
0.075969
0.079998
0.080995
0.084982
0.090008
0.091005
0.083985
0.079998
0.083985
0.090008
0.085979
0.075969
0.068991
0.067994
0.066000
0.061971
0.059978
0.059978
0.053000
0.042989
0.036967
0.038005
0.036967
0.028992
0.020976
0.021972
0.026001
0.024008
0.016988
0.015991
0.024008
0.032979
0.032979
0.025004
0.016988
0.015991
0.020976
0.027995
0.030986
0.025004
0.013998
0.007975
0.011007
0.016988
0.019979
0.021972
0.021972
0.021972
0.021972
0.022969
0.021972
0.017985
0.013001
0.008972
0.006978
0.006978
0.006978
0.006978
0.008972
0.012004
0.012004
0.007975
0.007975
0.012004
0.016988
0.017985
0.012004
0.004984
0.004984
0.008972
0.009969
0.008972
0.009969
0.013001
0.015991
0.014994
0.011007
0.008972
0.013998
0.018982
0.008972
-0.016033
-0.041993
-0.056032
-0.053000
-0.034018
-0.011007
-0.000997
-0.005026
0.000000
0.020976
0.041993
0.047974
0.038005
0.026998
0.019979
0.016988
0.018982
0.024008
0.030986
0.033976
0.035970
0.036967
0.035970
0.030986
0.026998
0.028992
0.033976
0.033976
0.027995
0.021972
0.021972
0.025004
0.026998
0.026001
0.022969
0.019979
0.017985
0.018982
0.017985
0.020976
0.045980
0.079001
0.034973
-0.248010
-0.896008
-1.678997
-1.941004
-1.277015
-0.190026
0.432968
0.390975
0.168967
0.104005
0.107993
0.070985
0.034973
0.038005
0.054993
0.060974
0.064006
0.069988
0.077007
0.081991
0.084982
0.087973
0.092998
0.098980
0.102967
0.102967
0.100973
0.095989
0.093995
0.092002
0.090008
0.084982
0.080995
0.077007
0.070985
0.066997
0.066000
0.064006
0.058981
0.052003
0.049967
0.048971
0.045980
0.041993
0.038005
0.036967
0.035970
0.033976
0.031982
0.028992
0.027995
0.029989
0.032979
0.032979
0.028992
0.026998
0.026998
0.026998
0.026998
0.026998
0.026001
0.025004
0.026001
0.028992
0.030986
0.027995
0.022969
0.018982
0.019979
0.021972
0.021972
0.019979
0.018982
0.020976
0.022969
0.019979
0.015991
0.015991
0.016988
0.014994
0.011007
0.008972
0.007975
0.007975
0.006978
0.005981
0.005981
0.007975
0.012004
0.013001
0.013001
0.012004
0.013001
0.013998
0.013001
0.013998
0.015991
0.014994
0.012004
0.011007
0.013001
0.000000
-0.031027
-0.058025
-0.059022
-0.039999
-0.016033
0.002991
0.004984
-0.003032
0.000997
0.022969
0.039002
0.033976
0.020976
0.013998
0.013001
0.015991
0.021972
0.024008
0.022969
0.022969
0.022969
0.022969
0.024008
0.025004
0.024008
0.020976
0.019979
0.021972
0.022969
0.020976
0.016988
0.014994
0.013001
0.013998
0.013998
0.015991
0.016988
0.014994
0.014994
0.020976
0.040996
0.051006
-0.087017
-0.584033
-1.386004
-1.922023
-1.598003
-0.590014
0.260969
0.455979
0.277002
0.153973
0.134991
0.097983
0.047974
0.036967
0.051006
0.058981
0.060974
0.065003
0.070985
0.079001
0.085979
0.090008
0.088969
0.087973
0.091005
0.094992
0.096986
0.093995
0.090008
0.090008
0.088969
0.084982
0.080995
0.078004
0.072978
0.066997
0.060974
0.056987
0.053000
0.048971
0.044983
0.041993
0.039999
0.038005
0.034973
0.030986
0.027995
0.029989
0.031982
0.031982
0.029989
0.027995
0.027995
0.028992
0.028992
0.026998
0.024008
0.022969
0.022969
0.022969
0.021972
0.021972
0.022969
0.022969
0.024008
0.024008
0.022969
0.021972
0.025004
0.028992
0.026998
0.020976
0.016988
0.017985
0.018982
0.017985
0.015991
0.015991
0.013998
0.013001
0.014994
0.014994
0.013001
0.011007
0.013001
0.013001
0.008972
0.005981
0.004984
0.007975
0.011007
0.009969
0.009969
0.013998
0.019979
0.018982
0.013998
0.013998
0.017985
0.018982
0.014994
0.013998
0.015991
0.009969
-0.013001
-0.044028
-0.056032
-0.039999
-0.009013
0.011007
0.011007
0.003987
0.011007
0.029989
0.039999
0.030986
0.015991
0.013998
0.019979
0.026001
0.028992
0.028992
0.028992
0.027995
0.026001
0.024008
0.022969
0.024008
0.026001
0.027995
0.027995
0.026001
0.024008
0.024008
0.024008
0.022969
0.020976
0.019979
0.017985
0.015991
0.015991
0.018982
0.022969
0.039999
0.062968
-0.032024
-0.468024
-1.243994
-1.857019
-1.679994
-0.753997
0.150982
0.445969
0.304997
0.167970
0.141969
0.111980
0.059978
0.040996
0.049967
0.057984
0.061971
0.071981
0.083985
0.090008
0.088969
0.088969
0.094992
0.098980
0.097983
0.098980
0.102967
0.102967
0.095989
0.087973
0.087973
0.091005
0.088969
0.079001
0.068991
0.066997
0.067994
0.062968
0.054993
0.049967
0.049967
0.048971
0.045980
0.042989
0.038005
0.033976
0.034973
0.038005
0.036967
0.029989
0.026001
0.028992
0.035970
0.036967
0.032979
0.028992
0.030986
0.033976
0.031982
0.026998
0.028992
0.033976
0.033976
0.026998
0.022969
0.026001
0.033976
0.038005
0.033976
0.026998
0.022969
0.026001
0.030986
0.032979
0.029989
0.026998
0.024008
0.025004
0.026998
0.027995
0.026001
0.025004
0.026998
0.026001
0.019979
0.017985
0.021972
0.022969
0.019979
0.016988
0.021972
0.026998
0.027995
0.024008
0.019979
0.017985
0.019979
0.022969
0.026001
0.026998
0.015991
-0.013001
-0.044028
-0.052003
-0.030030
0.000000
0.011007
0.003987
0.001994
0.019979
0.047974
0.060974
0.055990
0.047974
0.045980
0.043986
0.036967
0.034973
0.040996
0.046977
0.047974
0.046977
0.048971
0.052003
0.049967
0.044983
0.041993
0.039999
0.039002
0.039002
0.039002
0.038005
0.034973
0.033976
0.035970
0.038005
0.039002
0.039002
0.033976
0.031982
0.048971
0.072978
0.069988
-0.037008
-0.436000
-1.209021
-1.906031
-1.783999
-0.797028
0.190981
0.479986
0.283980
0.132000
0.127971
0.110983
0.059978
0.048971
0.068991
0.079001
0.079001
0.081991
0.087973
0.094992
0.102967
0.108990
0.111980
0.113974
0.118003
0.120993
0.120993
0.118003
0.115968
0.113974
0.109987
0.105999
0.102967
0.099976
0.092998
0.084982
0.078004
0.072978
0.067994
0.067994
0.069988
0.068991
0.062968
0.055990
0.053996
0.055990
0.056987
0.054993
0.052003
0.051006
0.049967
0.047974
0.046977
0.047974
0.047974
0.046977
0.045980
0.046977
0.049967
0.049967
0.046977
0.042989
0.041993
0.042989
0.044983
0.044983
0.042989
0.040996
0.039002
0.038005
0.038005
0.038005
0.032979
0.024008
0.019979
0.024008
0.030986
0.033976
0.032979
0.029989
0.027995
0.026998
0.026998
0.026998
0.025004
0.022969
0.025004
0.025004
0.022969
0.021972
0.026001
0.027995
0.026998
0.026001
0.026998
0.027995
0.026001
0.025004
0.022969
0.022969
0.025004
0.019979
0.000997
-0.026001
-0.044028
-0.039002
-0.013998
0.013001
0.021972
0.013001
0.013001
0.031982
0.049967
0.048971
0.039002
0.031982
0.030986
0.031982
0.034973
0.039002
0.040996
0.040996
0.039999
0.039002
0.038005
0.038005
0.039002
0.039002
0.038005
0.035970
0.034973
0.033976
0.031982
0.031982
0.031982
0.029989
0.026998
0.026998
0.022969
0.014994
0.017985
0.038005
0.062968
0.044983
-0.156008
-0.728993
-1.531006
-1.915003
-1.380023
-0.324020
0.375981
0.422003
0.228986
0.152976
0.140972
0.090008
0.044983
0.048971
0.066997
0.069988
0.069988
0.078004
0.084982
0.088969
0.092998
0.099976
0.106996
0.108990
0.108990
0.107993
0.107993
0.105999
0.098980
0.092002
0.090008
0.088969
0.087973
0.083985
0.078004
0.071981
0.067994
0.065003
0.060974
0.055990
0.052003
0.048971
0.044983
0.039002
0.035970
0.034973
0.035970
0.036967
0.038005
0.039002
0.038005
0.035970
0.035970
0.034973
0.033976
0.033976
0.033976
0.031982
0.028992
0.027995
0.030986
0.030986
0.028992
0.026998
0.027995
0.029989
0.028992
0.026998
0.026998
0.027995
0.028992
0.028992
0.027995
0.024008
0.019979
0.019979
0.022969
0.024008
0.024008
0.022969
0.021972
0.021972
0.021972
0.019979
0.017985
0.015991
0.014994
0.013998
0.013998
0.014994
0.014994
0.014994
0.014994
0.016988
0.016988
0.017985
0.019979
0.021972
0.021972
0.020976
0.020976
0.020976
0.013001
-0.010010
-0.038005
-0.046022
-0.031027
-0.005026
0.013001
0.016988
0.007975
0.002991
0.013001
0.026001
0.029989
0.025004
0.022969
0.026998
0.032979
0.036967
0.038005
0.038005
0.034973
0.034973
0.033976
0.030986
0.026001
0.022969
0.022969
0.024008
0.022969
0.022969
0.025004
0.026998
0.026998
0.022969
0.019979
0.017985
0.017985
0.015991
0.012004
0.017985
0.042989
0.048971
-0.132997
-0.696014
-1.492004
-1.906031
-1.446024
-0.436997
0.302006
0.421006
0.255984
0.162986
0.143007
0.097983
0.053000
0.048971
0.065003
0.070985
0.069988
0.070985
0.077007
0.080995
0.084982
0.093995
0.102967
0.105999
0.105999
0.106996
0.104005
0.096986
0.094992
0.100973
0.105002
0.093995
0.078004
0.069988
0.070985
0.070985
0.066997
0.061971
0.055990
0.049967
0.049967
0.053000
0.051006
0.043986
0.042989
0.047974
0.048971
0.043986
0.035970
0.028992
0.025004
0.026998
0.032979
0.036967
0.035970
0.033976
0.033976
0.038005
0.039002
0.035970
0.030986
0.029989
0.030986
0.030986
0.027995
0.028992
0.029989
0.026001
0.019979
0.020976
0.026001
0.026998
0.026001
0.025004
0.025004
0.024008
0.027995
0.033976
0.032979
0.022969
0.014994
0.013998
0.017985
0.018982
0.015991
0.013001
0.014994
0.024008
0.026998
0.017985
0.012004
0.017985
0.026001
0.027995
0.025004
0.019979
0.016988
0.017985
0.018982
0.003987
-0.021017
-0.038005
-0.036011
-0.024008
-0.009013
0.004984
0.006978
0.002991
0.008972
0.029989
0.048971
0.049967
0.038005
0.026998
0.022969
0.026998
0.029989
0.029989
0.030986
0.038005
0.042989
0.042989
0.038005
0.032979
0.031982
0.033976
0.034973
0.032979
0.028992
0.028992
0.030986
0.030986
0.026001
0.024008
0.025004
0.026998
0.021972
0.016988
0.020976
0.038005
0.062968
0.048971
-0.168012
-0.773021
-1.599996
-1.991013
-1.443033
-0.353012
0.374984
0.414983
0.196007
0.104005
0.101970
0.068991
0.032979
0.035970
0.053000
0.060974
0.062968
0.067994
0.075969
0.082988
0.084982
0.083985
0.083985
0.086976
0.088969
0.090008
0.090008
0.091005
0.091005
0.088969
0.084982
0.079001
0.071981
0.066000
0.064006
0.062968
0.060974
0.055990
0.048971
0.044983
0.041993
0.038005
0.035970
0.034973
0.031982
0.027995
0.026001
0.025004
0.026001
0.025004
0.026001
0.026998
0.027995
0.026998
0.022969
0.017985
0.015991
0.016988
0.020976
0.021972
0.019979
0.018982
0.018982
0.018982
0.018982
0.017985
0.016988
0.018982
0.019979
0.016988
0.014994
0.013998
0.013998
0.013998
0.013001
0.008972
0.004984
0.003987
0.005981
0.008972
0.009969
0.007975
0.004984
0.003987
0.007975
0.012004
0.011007
0.005981
0.003987
0.004984
0.004984
0.001994
0.000000
0.002991
0.005981
0.006978
0.006978
0.008972
0.008972
0.006978
0.007975
0.011007
0.005981
-0.014994
-0.045025
-0.061016
-0.049012
-0.019023
0.001994
0.001994
-0.006023
-0.000997
0.015991
0.026998
0.022969
0.013001
0.008972
0.013001
0.015991
0.016988
0.017985
0.019979
0.020976
0.018982
0.014994
0.013001
0.013001
0.013001
0.012004
0.008972
0.007975
0.008972
0.009969
0.008972
0.005981
0.004984
0.004984
0.003987
0.001994
-0.000997
-0.001994
0.000997
0.014994
0.040996
0.026998
-0.190026
-0.779999
-1.560994
-1.906031
-1.371010
-0.348028
0.336979
0.398992
0.219973
0.134991
0.117006
0.071981
0.032979
0.033976
0.046977
0.052003
0.053000
0.057984
0.065003
0.070985
0.073975
0.075969
0.078004
0.080995
0.082988
0.082988
0.080995
0.079998
0.080995
0.078004
0.071981
0.068991
0.070985
0.070985
0.066000
0.055990
0.048971
0.045980
0.047974
0.047974
0.039999
0.030986
0.026998
0.027995
0.026998
0.022969
0.019979
0.019979
0.018982
0.018982
0.019979
0.018982
0.016988
0.015991
0.018982
0.019979
0.016988
0.015991
0.015991
0.016988
0.015991
0.013001
0.011007
0.011007
0.012004
0.011007
0.008972
0.006978
0.007975
0.008972
0.009969
0.008972
0.009969
0.013001
0.013001
0.007975
0.000997
-0.000997
0.001994
0.004984
0.005981
0.004984
0.001994
-0.000997
0.000997
0.004984
0.004984
0.000997
-0.000997
0.001994
0.006978
0.006978
0.002991
0.000000
0.000000
0.001994
0.000997
0.000997
0.001994
0.003987
0.005981
0.004984
0.000997
-0.013998
-0.040996
-0.064006
-0.060019
-0.026998
0.002991
0.005981
-0.008016
-0.013001
0.001994
0.020976
0.024008
0.015991
0.009969
0.011007
0.013998
0.016988
0.017985
0.019979
0.021972
0.019979
0.014994
0.012004
0.014994
0.015991
0.008972
0.004984
0.009969
0.016988
0.015991
0.009969
0.008972
0.013001
0.012004
0.003987
-0.000997
-0.000997
0.000000
0.004984
0.020976
0.043986
0.013001
-0.268030
-0.955030
-1.736026
-1.895024
-1.145014
-0.117006
0.396001
0.342005
0.181968
0.137982
0.114971
0.059978
0.030986
0.038005
0.041993
0.041993
0.053000
0.066997
0.071981
0.072978
0.079998
0.087973
0.088969
0.090008
0.093995
0.093995
0.081991
0.073975
0.079998
0.090008
0.087973
0.074972
0.066000
0.065003
0.066000
0.061971
0.054993
0.051006
0.051006
0.049967
0.047974
0.042989
0.039002
0.038005
0.039002
0.039002
0.033976
0.026998
0.026001
0.027995
0.030986
0.028992
0.027995
0.029989
0.032979
0.032979
0.030986
0.029989
0.032979
0.034973
0.033976
0.029989
0.026001
0.024008
0.025004
0.026998
0.026998
0.026998
0.028992
0.027995
0.024008
0.020976
0.024008
0.029989
0.029989
0.026001
0.021972
0.022969
0.025004
0.024008
0.020976
0.016988
0.014994
0.015991
0.016988
0.016988
0.013998
0.012004
0.014994
0.019979
0.022969
0.021972
0.019979
0.019979
0.018982
0.019979
0.019979
0.005981
-0.023011
-0.048015
-0.053996
-0.039999
-0.016033
0.001994
0.001994
-0.007020
0.004984
0.035970
0.055990
0.052003
0.038005
0.026998
0.022969
0.025004
0.028992
0.031982
0.032979
0.032979
0.030986
0.027995
0.026001
0.026998
0.028992
0.028992
0.026998
0.026998
0.028992
0.030986
0.029989
0.026998
0.021972
0.019979
0.020976
0.020976
0.018982
0.014994
0.009969
0.018982
0.052003
0.073975
-0.030030
-0.432013
-1.179032
-1.872014
-1.834008
-0.925000
0.099976
0.484971
0.317000
0.132000
0.109987
0.102967
0.053996
0.030986
0.044983
0.057984
0.060974
0.066000
0.070985
0.073975
0.078004
0.082988
0.086976
0.088969
0.092002
0.092998
0.093995
0.092002
0.087973
0.084982
0.084982
0.084982
0.082988
0.077007
0.068991
0.066000
0.066997
0.065003
0.058981
0.052003
0.046977
0.043986
0.041993
0.040996
0.035970
0.030986
0.027995
0.029989
0.030986
0.029989
0.027995
0.026998
0.027995
0.029989
0.030986
0.029989
0.026001
0.020976
0.019979
0.020976
0.021972
0.022969
0.024008
0.025004
0.024008
0.022969
0.026001
0.027995
0.024008
0.018982
0.017985
0.020976
0.021972
0.017985
0.013001
0.011007
0.012004
0.013998
0.014994
0.012004
0.006978
0.003987
0.005981
0.008972
0.011007
0.009969
0.009969
0.009969
0.011007
0.011007
0.008972
0.007975
0.006978
0.009969
0.013001
0.013001
0.012004
0.013001
0.013001
0.011007
0.009969
0.008972
-0.004029
-0.030030
-0.051006
-0.052003
-0.032024
-0.005026
0.009969
0.004984
-0.004029
0.005981
0.030986
0.044983
0.036967
0.022969
0.018982
0.021972
0.022969
0.022969
0.026001
0.029989
0.031982
0.028992
0.025004
0.024008
0.022969
0.018982
0.017985
0.019979
0.019979
0.016988
0.015991
0.017985
0.016988
0.013001
0.011007
0.013001
0.013001
0.008972
0.006978
0.018982
0.039002
0.048971
-0.011007
-0.317000
-1.004001
-1.755008
-1.860010
-1.070001
-0.049012
0.424993
0.342005
0.178977
0.143007
0.121990
0.065003
0.033976
0.043986
0.054993
0.056987
0.061971
0.069988
0.074972
0.078004
0.083985
0.087973
0.087973
0.087973
0.090008
0.092002
0.092002
0.091005
0.090008
0.085979
0.079001
0.074972
0.074972
0.072978
0.066997
0.060974
0.056987
0.054993
0.053996
0.051006
0.044983
0.040996
0.039999
0.039999
0.038005
0.032979
0.029989
0.027995
0.026998
0.025004
0.022969
0.022969
0.025004
0.027995
0.027995
0.026001
0.024008
0.025004
0.026998
0.028992
0.027995
0.026001
0.025004
0.021972
0.019979
0.018982
0.020976
0.020976
0.018982
0.017985
0.018982
0.019979
0.019979
0.020976
0.020976
0.020976
0.019979
0.019979
0.016988
0.013001
0.008972
0.009969
0.015991
0.018982
0.014994
0.009969
0.011007
0.014994
0.017985
0.016988
0.013998
0.013001
0.013998
0.013998
0.009969
0.007975
0.012004
0.019979
0.020976
0.013998
0.007975
0.011007
0.012004
-0.006023
-0.033021
-0.045025
-0.028992
0.001994
0.019979
0.013001
0.000000
0.008972
0.029989
0.035970
0.024008
0.013001
0.015991
0.027995
0.035970
0.036967
0.032979
0.029989
0.029989
0.028992
0.024008
0.019979
0.021972
0.026001
0.025004
0.024008
0.025004
0.026998
0.024008
0.018982
0.016988
0.016988
0.014994
0.015991
0.019979
0.017985
0.013998
0.029989
0.067994
0.059978
-0.149030
-0.707021
-1.487019
-1.921026
-1.492004
-0.468024
0.309981
0.436000
0.249006
0.146995
0.134991
0.097983
0.049967
0.039999
0.052003
0.062968
0.067994
0.066997
0.068991
0.080995
0.097983
0.107993
0.108990
0.108990
0.105999
0.104005
0.108990
0.117006
0.108990
0.092002
0.088969
0.098980
0.098980
0.084982
0.074972
0.073975
0.073975
0.071981
0.066997
0.055990
0.046977
0.051006
0.059978
0.058981
0.046977
0.038005
0.039002
0.043986
0.046977
0.046977
0.046977
0.047974
0.044983
0.035970
0.029989
0.034973
0.044983
0.047974
0.042989
0.039002
0.040996
0.045980
0.049967
0.048971
0.041993
0.036967
0.039999
0.042989
0.041993
0.040996
0.043986
0.044983
0.039999
0.034973
0.034973
0.038005
0.035970
0.033976
0.033976
0.033976
0.030986
0.028992
0.030986
0.032979
0.033976
0.032979
0.029989
0.027995
0.028992
0.029989
0.026998
0.024008
0.025004
0.028992
0.032979
0.033976
0.032979
0.022969
0.000997
-0.024008
-0.034018
-0.022014
0.001994
0.016988
0.013001
0.005981
0.014994
0.036967
0.054993
0.057984
0.052003
0.041993
0.033976
0.031982
0.034973
0.039999
0.040996
0.040996
0.039002
0.035970
0.034973
0.035970
0.034973
0.029989
0.028992
0.033976
0.036967
0.033976
0.028992
0.026001
0.026998
0.028992
0.026001
0.022969
0.022969
0.018982
0.014994
0.030986
0.062968
0.060974
-0.080995
-0.525011
-1.289019
-1.923019
-1.748030
-0.754994
0.211998
0.487006
0.293990
0.141969
0.130007
0.104005
0.048971
0.033976
0.053000
0.065003
0.065003
0.069988
0.077007
0.081991
0.085979
0.092002
0.097983
0.098980
0.098980
0.099976
0.101970
0.099976
0.094992
0.091005
0.088969
0.086976
0.082988
0.078004
0.073975
0.071981
0.069988
0.067994
0.064006
0.058981
0.054993
0.053000
0.049967
0.045980
0.040996
0.035970
0.031982
0.033976
0.034973
0.031982
0.029989
0.029989
0.030986
0.028992
0.027995
0.028992
0.029989
0.027995
0.026998
0.028992
0.028992
0.027995
0.027995
0.029989
0.030986
0.029989
0.026998
0.025004
0.026001
0.028992
0.029989
0.026998
0.025004
0.025004
0.026998
0.026998
0.024008
0.021972
0.019979
0.015991
0.012004
0.011007
0.013001
0.014994
0.013998
0.012004
0.008972
0.008972
0.012004
0.016988
0.018982
0.019979
0.020976
0.022969
0.020976
0.018982
0.017985
0.018982
0.019979
0.017985
0.013001
0.012004
0.016988
0.016988
-0.000997
-0.030030
-0.050009
-0.043031
-0.014994
0.013998
0.021972
0.011007
0.005981
0.019979
0.034973
0.033976
0.020976
0.013998
0.015991
0.021972
0.026001
0.027995
0.028992
0.029989
0.028992
0.026998
0.025004
0.026998
0.028992
0.027995
0.022969
0.020976
0.019979
0.019979
0.018982
0.018982
0.019979
0.019979
0.017985
0.015991
0.012004
0.006978
0.012004
0.033976
0.054993
0.028992
-0.183006
-0.759023
-1.550029
-1.916000
-1.372007
-0.322026
0.368006
0.413986
0.224002
0.145998
0.133994
0.085979
0.044983
0.051006
0.066997
0.066000
0.062968
0.068991
0.077007
0.081991
0.084982
0.086976
0.090008
0.095989
0.098980
0.095989
0.090008
0.088969
0.090008
0.088969
0.084982
0.080995
0.077007
0.071981
0.069988
0.068991
0.065003
0.058981
0.053996
0.053000
0.052003
0.047974
0.043986
0.041993
0.042989
0.041993
0.036967
0.033976
0.036967
0.039999
0.036967
0.030986
0.026998
0.026001
0.025004
0.024008
0.026001
0.026998
0.026998
0.025004
0.024008
0.025004
0.027995
0.029989
0.028992
0.026001
0.026001
0.026001
0.022969
0.019979
0.020976
0.025004
0.026998
0.026998
0.026001
0.026001
0.024008
0.020976
0.020976
0.024008
0.026001
0.024008
0.021972
0.020976
0.019979
0.019979
0.022969
0.026001
0.024008
0.019979
0.018982
0.025004
0.030986
0.029989
0.026001
0.024008
0.020976
0.019979
0.021972
0.026001
0.026998
0.026998
0.022969
0.004984
-0.025004
-0.044028
-0.034018
-0.004029
0.017985
0.016988
0.004984
0.006978
0.027995
0.044983
0.039999
0.019979
0.012004
0.019979
0.028992
0.028992
0.028992
0.033976
0.039999
0.038005
0.031982
0.031982
0.035970
0.035970
0.028992
0.022969
0.022969
0.026998
0.028992
0.026998
0.025004
0.028992
0.029989
0.022969
0.017985
0.020976
0.025004
0.029989
0.049967
0.070985
-0.010010
-0.389023
-1.126033
-1.824995
-1.814030
-0.946017
0.065003
0.475999
0.341008
0.156008
0.119997
0.107993
0.060974
0.036967
0.052003
0.067994
0.070985
0.075969
0.088969
0.099976
0.106996
0.107993
0.101970
0.095989
0.104005
0.119997
0.122987
0.112977
0.107993
0.111980
0.111980
0.106996
0.098980
0.091005
0.082988
0.080995
0.082988
0.083985
0.080995
0.073975
0.067994
0.060974
0.052003
0.046977
0.048971
0.052003
0.051006
0.048971
0.048971
0.048971
0.049967
0.048971
0.046977
0.043986
0.046977
0.051006
0.049967
0.045980
0.044983
0.045980
0.042989
0.039002
0.039999
0.044983
0.046977
0.043986
0.041993
0.044983
0.047974
0.046977
0.043986
0.040996
0.038005
0.036967
0.038005
0.038005
0.035970
0.032979
0.030986
0.031982
0.035970
0.035970
0.033976
0.031982
0.031982
0.030986
0.028992
0.030986
0.035970
0.036967
0.031982
0.026998
0.026998
0.027995
0.026001
0.026001
0.029989
0.022969
-0.003032
-0.031027
-0.038005
-0.026998
-0.003032
0.017985
0.019979
0.008972
0.013001
0.039999
0.064006
0.064006
0.051006
0.040996
0.036967
0.036967
0.039002
0.040996
0.042989
0.046977
0.048971
0.046977
0.045980
0.044983
0.043986
0.039999
0.035970
0.032979
0.032979
0.035970
0.039999
0.041993
0.039002
0.034973
0.031982
0.029989
0.028992
0.026998
0.022969
0.026998
0.053996
0.078004
-0.024008
-0.454027
-1.234025
-1.899012
-1.779015
-0.830008
0.157005
0.490993
0.319991
0.154970
0.135988
0.117006
0.066000
0.045980
0.059978
0.070985
0.072978
0.075969
0.080995
0.087973
0.093995
0.098980
0.100973
0.105999
0.109987
0.109987
0.107993
0.106996
0.106996
0.107993
0.106996
0.100973
0.092002
0.084982
0.080995
0.079001
0.074972
0.069988
0.065003
0.060974
0.057984
0.053996
0.049967
0.046977
0.044983
0.041993
0.039999
0.039999
0.040996
0.039002
0.036967
0.035970
0.035970
0.034973
0.033976
0.033976
0.034973
0.034973
0.033976
0.032979
0.030986
0.027995
0.026001
0.026001
0.026001
0.026998
0.026001
0.026001
0.025004
0.022969
0.021972
0.024008
0.026998
0.027995
0.026998
0.022969
0.018982
0.017985
0.019979
0.021972
0.020976
0.016988
0.013001
0.009969
0.012004
0.015991
0.015991
0.013001
0.012004
0.013001
0.013998
0.014994
0.017985
0.018982
0.015991
0.013998
0.014994
0.016988
0.017985
0.017985
0.014994
0.008972
0.009969
0.013001
-0.001994
-0.035015
-0.058025
-0.048015
-0.018026
0.007975
0.015991
0.007975
0.002991
0.020976
0.046977
0.049967
0.032979
0.019979
0.020976
0.026001
0.028992
0.030986
0.032979
0.034973
0.034973
0.031982
0.027995
0.026998
0.028992
0.029989
0.028992
0.026998
0.025004
0.021972
0.018982
0.017985
0.017985
0.017985
0.017985
0.017985
0.016988
0.013001
0.011007
0.024008
0.042989
0.053000
0.011007
-0.246016
-0.890027
-1.673016
-1.894028
-1.199011
-0.156008
0.408005
0.374984
0.198997
0.145998
0.130007
0.079001
0.043986
0.047974
0.059978
0.061971
0.066997
0.073975
0.078004
0.080995
0.085979
0.090008
0.092002
0.092002
0.092998
0.092998
0.092998
0.094992
0.093995
0.088969
0.081991
0.079001
0.079001
0.077007
0.069988
0.061971
0.057984
0.057984
0.055990
0.048971
0.040996
0.036967
0.038005
0.040996
0.040996
0.038005
0.032979
0.030986
0.028992
0.026998
0.025004
0.022969
0.020976
0.019979
0.018982
0.016988
0.014994
0.016988
0.019979
0.020976
0.019979
0.019979
0.019979
0.019979
0.018982
0.016988
0.013001
0.011007
0.012004
0.012004
0.011007
0.009969
0.012004
0.009969
0.002991
-0.000997
0.001994
0.007975
0.013001
0.013998
0.013998
0.012004
0.008972
0.004984
0.004984
0.004984
0.004984
0.002991
0.000000
0.001994
0.005981
0.004984
0.002991
0.003987
0.006978
0.008972
0.009969
0.009969
0.005981
0.004984
0.009969
0.013998
-0.001994
-0.032024
-0.056032
-0.053996
-0.035015
-0.014994
-0.008016
-0.013001
-0.013998
-0.000997
0.021972
0.036967
0.032979
0.015991
0.002991
0.006978
0.019979
0.022969
0.015991
0.014994
0.022969
0.026001
0.020976
0.018982
0.018982
0.018982
0.017985
0.018982
0.015991
0.013001
0.011007
0.012004
0.011007
0.008972
0.007975
0.008972
0.009969
0.004984
-0.000997
0.013001
0.043986
0.049967
-0.057029
-0.455024
-1.214005
-1.900009
-1.800032
-0.846996
0.136985
0.454982
0.283980
0.128968
0.110983
0.092998
0.043986
0.025004
0.036967
0.045980
0.052003
0.064006
0.073975
0.073975
0.069988
0.073975
0.083985
0.088969
0.087973
0.086976
0.087973
0.084982
0.079001
0.079998
0.092002
0.100973
0.093995
0.078004
0.066997
0.064006
0.062968
0.058981
0.056987
0.055990
0.052003
0.043986
0.036967
0.038005
0.040996
0.039999
0.034973
0.032979
0.033976
0.034973
0.031982
0.027995
0.026998
0.026998
0.026998
0.028992
0.030986
0.030986
0.028992
0.028992
0.027995
0.024008
0.017985
0.016988
0.018982
0.019979
0.018982
0.019979
0.020976
0.019979
0.017985
0.016988
0.019979
0.021972
0.019979
0.014994
0.012004
0.012004
0.013998
0.012004
0.007975
0.005981
0.007975
0.009969
0.011007
0.008972
0.006978
0.006978
0.007975
0.005981
0.002991
0.002991
0.003987
0.003987
0.005981
0.012004
0.009969
-0.010010
-0.043031
-0.067994
-0.070029
-0.049012
-0.024008
-0.013001
-0.019023
-0.018026
0.001994
0.030986
0.041993
0.031982
0.017985
0.011007
0.008972
0.005981
0.007975
0.013998
0.019979
0.020976
0.017985
0.014994
0.014994
0.015991
0.015991
0.013001
0.009969
0.008972
0.011007
0.009969
0.006978
0.004984
0.006978
0.008972
0.008972
0.009969
0.011007
0.001994
-0.007020
0.007975
0.039002
0.039002
-0.075013
-0.467027
-1.206030
-1.879033
-1.788028
-0.852022
0.130007
0.457973
0.291996
0.136985
0.119000
0.098980
0.042989
0.019979
0.036967
0.053000
0.054993
0.053996
0.054993
0.058981
0.066997
0.072978
0.072978
0.066997
0.065003
0.070985
0.079998
0.081991
0.077007
0.072978
0.070985
0.069988
0.066997
0.062968
0.057984
0.051006
0.042989
0.039999
0.038005
0.034973
0.030986
0.029989
0.028992
0.025004
0.019979
0.018982
0.018982
0.017985
0.013998
0.011007
0.011007
0.009969
0.008972
0.008972
0.011007
0.009969
0.006978
0.004984
0.004984
0.006978
0.006978
0.005981
0.005981
0.006978
0.006978
0.005981
0.005981
0.006978
0.005981
0.002991
0.000000
0.000000
-0.000997
-0.001994
-0.001994
0.000997
0.001994
-0.003032
-0.008016
-0.008016
-0.005026
-0.006023
-0.009013
-0.009013
-0.008016
-0.012004
-0.018026
-0.018026
-0.013998
-0.011007
-0.010010
-0.010010
-0.009013
-0.010010
-0.012004
-0.012004
-0.011007
-0.012004
-0.014994
-0.013001
-0.007020
-0.014994
-0.041993
-0.069032
-0.077007
-0.066997
-0.049012
-0.027995
-0.019023
-0.024008
-0.022014
-0.000997
0.019979
0.020976
0.009969
0.000997
-0.001994
-0.001994
0.000000
0.002991
0.005981
0.008972
0.009969
0.006978
0.001994
0.000000
0.001994
0.001994
-0.000997
-0.001994
-0.000997
-0.003032
-0.008016
-0.011007
-0.011007
-0.013001
-0.014994
-0.013001
-0.012004
-0.013001
-0.013001
-0.003032
0.020976
0.028992
-0.123029
-0.646005
-1.454995
-1.948024
-1.559001
-0.535021
0.268985
0.416977
0.230980
0.123984
0.114971
0.079998
0.027995
0.013001
0.021972
0.029989
0.039002
0.047974
0.052003
0.053000
0.057984
0.061971
0.065003
0.066997
0.068991
0.069988
0.070985
0.070985
0.066000
0.058981
0.057984
0.058981
0.055990
0.048971
0.044983
0.042989
0.039002
0.033976
0.026998
0.022969
0.019979
0.013998
0.009969
0.009969
0.012004
0.011007
0.007975
0.007975
0.007975
0.005981
0.001994
0.000997
0.003987
0.001994
-0.006023
-0.012004
-0.009013
-0.001994
0.000997
-0.001994
-0.006023
-0.009013
-0.005026
0.001994
0.001994
-0.004029
-0.006023
-0.006023
-0.007020
-0.006023
-0.005026
-0.007020
-0.011007
-0.013001
-0.012004
-0.012004
-0.013998
-0.013998
-0.011007
-0.008016
-0.010010
-0.012004
-0.009013
-0.010010
-0.020020
-0.027995
-0.025004
-0.016033
-0.014994
-0.020020
-0.020020
-0.014994
-0.011007
-0.011007
-0.011007
-0.012004
-0.014994
-0.020020
-0.018026
-0.009013
-0.009013
-0.036011
-0.076010
-0.094992
-0.080995
-0.053000
-0.031027
-0.025004
-0.033021
-0.036011
-0.019023
0.006978
0.020976
0.013998
-0.004029
-0.014994
-0.011007
-0.001994
0.004984
0.008972
0.012004
0.005981
-0.003032
-0.004029
0.001994
0.001994
-0.005026
-0.009013
-0.006023
-0.000997
0.001994
0.000997
-0.004029
-0.005026
0.000000
0.003987
-0.000997
-0.009013
-0.011007
-0.010010
-0.009013
0.009969
0.041993
-0.019023
-0.376023
-1.109003
-1.844019
-1.901006
-1.081008
-0.048015
0.422999
0.319991
0.134991
0.092002
0.074972
0.025004
0.003987
0.022969
0.035970
0.033976
0.036967
0.046977
0.053996
0.057984
0.064006
0.068991
0.071981
0.071981
0.070985
0.070985
0.070985
0.070985
0.071981
0.072978
0.069988
0.061971
0.056987
0.055990
0.049967
0.038005
0.029989
0.032979
0.038005
0.033976
0.028992
0.027995
0.028992
0.027995
0.025004
0.021972
0.018982
0.013998
0.013001
0.013001
0.013001
0.011007
0.011007
0.013001
0.013001
0.012004
0.011007
0.011007
0.009969
0.009969
0.009969
0.008972
0.006978
0.001994
-0.001994
-0.004029
-0.000997
0.001994
0.000997
-0.001994
-0.005026
-0.005026
-0.003032
-0.000997
-0.004029
-0.008016
-0.009013
-0.008016
-0.006023
-0.007020
-0.011007
-0.013001
-0.012004
-0.010010
-0.013001
-0.016033
-0.013998
-0.011007
-0.011007
-0.012004
-0.011007
-0.011007
-0.012004
-0.012004
-0.012004
-0.020020
-0.043031
-0.077007
-0.096031
-0.085024
-0.057029
-0.038005
-0.034018
-0.036011
-0.027995
-0.007020
0.015991
0.024008
0.013001
-0.000997
-0.008016
-0.008016
-0.006023
-0.005026
-0.003032
-0.000997
0.001994
0.000000
-0.003032
-0.004029
-0.003032
-0.003032
-0.006023
-0.007020
-0.005026
-0.005026
-0.007020
-0.008016
-0.009013
-0.009013
-0.010010
-0.013001
-0.016033
-0.016033
-0.017030
-0.019023
-0.013998
0.008972
0.026998
-0.089011
-0.542996
-1.324033
-1.928004
-1.721031
-0.757030
0.157005
0.424993
0.254988
0.114971
0.098980
0.072978
0.019979
0.003987
0.018982
0.029989
0.030986
0.033976
0.039999
0.046977
0.053000
0.058981
0.061971
0.062968
0.060974
0.059978
0.060974
0.061971
0.060974
0.055990
0.052003
0.048971
0.044983
0.040996
0.038005
0.032979
0.026998
0.019979
0.016988
0.016988
0.015991
0.013001
0.008972
0.004984
0.000000
-0.005026
-0.007020
-0.006023
-0.005026
-0.007020
-0.011007
-0.012004
-0.010010
-0.008016
-0.009013
-0.009013
-0.008016
-0.007020
-0.008016
-0.012004
-0.014994
-0.013998
-0.011007
-0.012004
-0.017030
-0.019023
-0.013998
-0.009013
-0.010010
-0.016033
-0.020020
-0.017030
-0.011007
-0.010010
-0.018026
-0.026998
-0.028992
-0.026998
-0.025004
-0.025004
-0.026998
-0.027995
-0.026998
-0.026001
-0.025004
-0.026001
-0.026001
-0.026001
-0.026001
-0.026998
-0.026998
-0.027995
-0.026998
-0.025004
-0.025004
-0.026998
-0.026998
-0.024008
-0.024008
-0.025004
-0.021017
-0.021017
-0.045025
-0.082033
-0.101015
-0.092002
-0.073020
-0.054993
-0.041993
-0.044028
-0.048015
-0.033021
-0.003032
0.009969
-0.000997
-0.014994
-0.019023
-0.017030
-0.013998
-0.011007
-0.008016
-0.006023
-0.007020
-0.009013
-0.012004
-0.013998
-0.016033
-0.017030
-0.016033
-0.018026
-0.021017
-0.021017
-0.017030
-0.013998
-0.016033
-0.021017
-0.024008
-0.023011
-0.020020
-0.017030
-0.019023
-0.026001
-0.020020
0.007975
0.013998
-0.151024
-0.669015
-1.445027
-1.922023
-1.559997
-0.577014
0.215986
0.384994
0.220970
0.114971
0.094992
0.056987
0.012004
0.002991
0.015991
0.025004
0.029989
0.031982
0.032979
0.035970
0.043986
0.052003
0.055990
0.056987
0.057984
0.057984
0.056987
0.053996
0.052003
0.049967
0.046977
0.041993
0.039002
0.038005
0.033976
0.026998
0.022969
0.021972
0.016988
0.011007
0.007975
0.006978
0.003987
0.001994
0.001994
0.000997
-0.005026
-0.012004
-0.016033
-0.013998
-0.010010
-0.007020
-0.007020
-0.010010
-0.013001
-0.013998
-0.013001
-0.012004
-0.012004
-0.013001
-0.013001
-0.013998
-0.016033
-0.018026
-0.016033
-0.013001
-0.013998
-0.018026
-0.021017
-0.019023
-0.013998
-0.013001
-0.017030
-0.018026
-0.019023
-0.023011
-0.027995
-0.026998
-0.023011
-0.020020
-0.021017
-0.023011
-0.026001
-0.030030
-0.031027
-0.030030
-0.025004
-0.021017
-0.021017
-0.024008
-0.021017
-0.013001
-0.011007
-0.017030
-0.024008
-0.024008
-0.022014
-0.022014
-0.023011
-0.022014
-0.027995
-0.053000
-0.089011
-0.105002
-0.086020
-0.048015
-0.026998
-0.036011
-0.052003
-0.041993
-0.006023
0.021972
0.017985
-0.000997
-0.011007
-0.012004
-0.013001
-0.010010
-0.000997
0.004984
0.004984
0.000997
-0.006023
-0.011007
-0.006023
0.003987
0.003987
-0.007020
-0.011007
-0.005026
-0.000997
-0.001994
-0.006023
-0.012004
-0.018026
-0.017030
-0.011007
-0.006023
-0.008016
-0.013001
-0.004029
0.022969
0.038005
-0.044028
-0.396001
-1.116022
-1.854029
-1.901006
-1.041009
0.007975
0.444972
0.304000
0.109987
0.078004
0.077007
0.033976
0.007975
0.020976
0.036967
0.039002
0.039999
0.046977
0.056987
0.062968
0.062968
0.064006
0.070985
0.078004
0.073975
0.065003
0.064006
0.072978
0.079001
0.073975
0.065003
0.060974
0.060974
0.058981
0.053996
0.048971
0.044983
0.040996
0.038005
0.032979
0.025004
0.020976
0.024008
0.027995
0.025004
0.019979
0.018982
0.020976
0.020976
0.019979
0.019979
0.020976
0.019979
0.014994
0.011007
0.011007
0.011007
0.005981
0.000997
0.004984
0.013998
0.015991
0.012004
0.008972
0.012004
0.013998
0.013998
0.012004
0.008972
0.006978
0.004984
0.001994
-0.000997
-0.001994
-0.001994
-0.001994
-0.000997
0.001994
0.000997
-0.005026
-0.009013
-0.009013
-0.006023
-0.005026
-0.007020
-0.007020
-0.007020
-0.009013
-0.011007
-0.011007
-0.010010
-0.008016
-0.009013
-0.009013
-0.003032
-0.007020
-0.036011
-0.074017
-0.088014
-0.072023
-0.046022
-0.026001
-0.022014
-0.030030
-0.026998
0.000997
0.027995
0.029989
0.016988
0.007975
0.003987
0.003987
0.008972
0.014994
0.015991
0.013998
0.015991
0.017985
0.014994
0.007975
0.005981
0.011007
0.013001
0.009969
0.008972
0.009969
0.008972
0.003987
0.000997
0.000000
-0.003032
-0.005026
-0.003032
0.000997
-0.000997
-0.006023
0.000000
0.015991
0.026998
-0.004029
-0.224002
-0.832998
-1.647015
-1.968999
-1.338031
-0.250003
0.399989
0.392969
0.189984
0.121990
0.115968
0.067994
0.024008
0.022969
0.035970
0.041993
0.048971
0.055990
0.059978
0.061971
0.067994
0.073975
0.078004
0.080995
0.083985
0.081991
0.079001
0.079001
0.079998
0.077007
0.070985
0.066997
0.064006
0.057984
0.052003
0.051006
0.048971
0.044983
0.039002
0.034973
0.031982
0.027995
0.022969
0.020976
0.020976
0.021972
0.020976
0.017985
0.017985
0.018982
0.014994
0.007975
0.007975
0.014994
0.016988
0.013998
0.012004
0.014994
0.016988
0.016988
0.014994
0.012004
0.009969
0.009969
0.011007
0.011007
0.007975
0.006978
0.008972
0.011007
0.012004
0.011007
0.009969
0.007975
0.005981
0.004984
0.004984
0.002991
0.000997
-0.000997
-0.001994
-0.001994
-0.004029
-0.005026
-0.005026
-0.005026
-0.004029
-0.003032
-0.001994
0.000000
0.001994
0.002991
0.002991
0.003987
0.004984
0.003987
0.001994
0.002991
0.003987
0.002991
0.000997
-0.007020
-0.031027
-0.063010
-0.077007
-0.059022
-0.031027
-0.014994
-0.016033
-0.019023
-0.010010
0.013998
0.036967
0.039999
0.026998
0.013998
0.008972
0.011007
0.017985
0.022969
0.024008
0.021972
0.019979
0.020976
0.021972
0.019979
0.015991
0.016988
0.018982
0.017985
0.013998
0.013001
0.013001
0.013001
0.011007
0.011007
0.012004
0.013001
0.011007
0.004984
0.001994
0.008972
0.024008
0.040996
0.022969
-0.191023
-0.797028
-1.603028
-1.929001
-1.334002
-0.285018
0.366968
0.392969
0.213992
0.145001
0.128968
0.075969
0.032979
0.038005
0.055990
0.061971
0.062968
0.066997
0.070985
0.073975
0.078004
0.082988
0.087973
0.091005
0.092998
0.092002
0.088969
0.087973
0.085979
0.081991
0.078004
0.077007
0.073975
0.066997
0.058981
0.055990
0.054993
0.048971
0.041993
0.040996
0.042989
0.042989
0.040996
0.039002
0.036967
0.033976
0.030986
0.028992
0.026001
0.021972
0.019979
0.021972
0.022969
0.020976
0.016988
0.014994
0.016988
0.022969
0.026001
0.019979
0.016988
0.021972
0.026998
0.026001
0.021972
0.019979
0.018982
0.015991
0.014994
0.016988
0.018982
0.019979
0.018982
0.015991
0.013998
0.014994
0.016988
0.017985
0.013998
0.007975
0.007975
0.014994
0.019979
0.015991
0.006978
0.006978
0.014994
0.013998
0.001994
-0.001994
0.009969
0.021972
0.020976
0.015991
0.014994
0.015991
0.016988
0.015991
0.014994
0.013998
0.002991
-0.026998
-0.054993
-0.056032
-0.033021
-0.011007
-0.003032
-0.007020
-0.010010
0.004984
0.031982
0.048971
0.045980
0.036967
0.029989
0.026001
0.028992
0.031982
0.027995
0.026998
0.030986
0.032979
0.031982
0.032979
0.034973
0.033976
0.033976
0.039002
0.040996
0.033976
0.027995
0.029989
0.030986
0.026998
0.022969
0.026998
0.029989
0.026001
0.019979
0.020976
0.030986
0.052003
0.071981
-0.025004
-0.469021
-1.279009
-1.936020
-1.749026
-0.753001
0.203982
0.476996
0.284976
0.130007
0.118003
0.097983
0.048971
0.036967
0.057984
0.069988
0.071981
0.075969
0.084982
0.092002
0.094992
0.095989
0.096986
0.100973
0.107993
0.113974
0.115968
0.112977
0.108990
0.107993
0.106996
0.101970
0.095989
0.092002
0.088969
0.085979
0.081991
0.075969
0.066997
0.058981
0.058981
0.060974
0.058981
0.053000
0.052003
0.053000
0.053000
0.052003
0.051006
0.047974
0.042989
0.039999
0.041993
0.042989
0.042989
0.040996
0.039002
0.039999
0.040996
0.039999
0.034973
0.030986
0.031982
0.033976
0.032979
0.031982
0.033976
0.036967
0.035970
0.033976
0.033976
0.035970
0.035970
0.033976
0.030986
0.027995
0.025004
0.024008
0.022969
0.020976
0.016988
0.013001
0.013001
0.015991
0.017985
0.015991
0.013001
0.013001
0.015991
0.018982
0.018982
0.018982
0.019979
0.018982
0.014994
0.016988
0.025004
0.022969
-0.001994
-0.038005
-0.057029
-0.052003
-0.030030
-0.003032
0.008972
0.000000
-0.004029
0.019979
0.052003
0.061971
0.049967
0.033976
0.026001
0.022969
0.026001
0.030986
0.035970
0.038005
0.036967
0.034973
0.033976
0.032979
0.032979
0.031982
0.030986
0.029989
0.028992
0.027995
0.026998
0.026001
0.024008
0.022969
0.021972
0.020976
0.020976
0.019979
0.017985
0.016988
0.027995
0.047974
0.053996
-0.010010
-0.312016
-0.994032
-1.753014
-1.869023
-1.069004
-0.025004
0.456976
0.363977
0.186994
0.145001
0.125978
0.072978
0.044983
0.054993
0.064006
0.065003
0.069988
0.078004
0.083985
0.087973
0.092002
0.095989
0.098980
0.101970
0.101970
0.100973
0.101970
0.101970
0.098980
0.093995
0.088969
0.084982
0.080995
0.077007
0.073975
0.068991
0.061971
0.058981
0.064006
0.066997
0.059978
0.051006
0.045980
0.043986
0.040996
0.038005
0.036967
0.036967
0.036967
0.034973
0.031982
0.030986
0.030986
0.029989
0.027995
0.026001
0.025004
0.026998
0.030986
0.030986
0.027995
0.026998
0.027995
0.026998
0.024008
0.022969
0.022969
0.020976
0.015991
0.014994
0.017985
0.019979
0.017985
0.016988
0.019979
0.021972
0.020976
0.019979
0.019979
0.020976
0.019979
0.018982
0.017985
0.013998
0.009969
0.008972
0.012004
0.016988
0.018982
0.016988
0.014994
0.015991
0.018982
0.018982
0.015991
0.013998
0.014994
0.016988
0.015991
0.013001
0.013001
0.008972
-0.013001
-0.050009
-0.067994
-0.051006
-0.022014
-0.005026
0.000000
-0.001994
0.000000
0.015991
0.038005
0.045980
0.038005
0.026998
0.020976
0.019979
0.021972
0.026001
0.027995
0.029989
0.032979
0.033976
0.031982
0.027995
0.026998
0.028992
0.029989
0.026998
0.024008
0.022969
0.022969
0.019979
0.016988
0.014994
0.014994
0.016988
0.015991
0.009969
0.005981
0.016988
0.038005
0.052003
0.015991
-0.234012
-0.873994
-1.662009
-1.895024
-1.207027
-0.158999
0.413986
0.383001
0.200991
0.144004
0.126975
0.074972
0.041993
0.051006
0.062968
0.061971
0.060974
0.067994
0.077007
0.082988
0.085979
0.086976
0.088969
0.092002
0.092002
0.092002
0.095989
0.098980
0.096986
0.090008
0.081991
0.078004
0.078004
0.077007
0.066000
0.046977
0.036967
0.043986
0.053000
0.052003
0.043986
0.039999
0.040996
0.039002
0.033976
0.028992
0.029989
0.031982
0.030986
0.028992
0.027995
0.027995
0.026998
0.026998
0.029989
0.030986
0.026998
0.022969
0.022969
0.022969
0.020976
0.020976
0.026001
0.029989
0.027995
0.021972
0.018982
0.021972
0.026998
0.027995
0.022969
0.014994
0.008972
0.009969
0.016988
0.021972
0.019979
0.013998
0.011007
0.012004
0.013001
0.013001
0.012004
0.008972
0.012004
0.018982
0.021972
0.017985
0.015991
0.015991
0.013001
0.011007
0.013001
0.013998
0.012004
0.013001
0.016988
0.021972
0.019979
0.004984
-0.024008
-0.053996
-0.061016
-0.041993
-0.017030
-0.008016
-0.013998
-0.013001
0.004984
0.022969
0.029989
0.034973
0.038005
0.033976
0.024008
0.019979
0.022969
0.026998
0.029989
0.034973
0.039002
0.034973
0.029989
0.026998
0.026998
0.026001
0.025004
0.027995
0.029989
0.024008
0.017985
0.019979
0.025004
0.026001
0.022969
0.022969
0.025004
0.020976
0.013998
0.022969
0.053000
0.067994
-0.038005
-0.445013
-1.206030
-1.890995
-1.801029
-0.854015
0.145998
0.481980
0.299971
0.122987
0.101970
0.092998
0.047974
0.026998
0.040996
0.052003
0.054993
0.061971
0.074972
0.084982
0.090008
0.092002
0.092998
0.092998
0.093995
0.095989
0.094992
0.091005
0.090008
0.090008
0.086976
0.082988
0.078004
0.073975
0.068991
0.066997
0.066997
0.065003
0.059978
0.052003
0.047974
0.045980
0.044983
0.040996
0.035970
0.032979
0.033976
0.034973
0.032979
0.028992
0.026998
0.026998
0.026998
0.022969
0.019979
0.022969
0.026001
0.025004
0.021972
0.018982
0.017985
0.019979
0.020976
0.020976
0.020976
0.020976
0.020976
0.018982
0.015991
0.014994
0.015991
0.015991
0.013998
0.013001
0.013001
0.014994
0.014994
0.015991
0.013001
0.006978
0.000997
0.000997
0.004984
0.004984
0.004984
0.004984
0.004984
0.004984
0.003987
0.003987
0.004984
0.006978
0.005981
0.001994
0.002991
0.008972
0.011007
0.005981
0.003987
0.000997
-0.019023
-0.054993
-0.074017
-0.063010
-0.037008
-0.018026
-0.011007
-0.014994
-0.013001
0.009969
0.036967
0.042989
0.028992
0.015991
0.011007
0.008972
0.011007
0.017985
0.021972
0.020976
0.020976
0.021972
0.021972
0.016988
0.013998
0.013001
0.013001
0.012004
0.008972
0.008972
0.009969
0.008972
0.004984
0.001994
0.000997
-0.000997
-0.004029
-0.005026
-0.004029
0.002991
0.015991
0.030986
0.002991
-0.241032
-0.880017
-1.675010
-1.928004
-1.260027
-0.209008
0.383997
0.365971
0.187991
0.132997
0.118003
0.062968
0.022969
0.027995
0.043986
0.044983
0.042989
0.047974
0.057984
0.065003
0.066997
0.067994
0.072978
0.077007
0.078004
0.078004
0.079001
0.079998
0.078004
0.074972
0.069988
0.065003
0.061971
0.057984
0.054993
0.049967
0.042989
0.035970
0.032979
0.030986
0.026998
0.020976
0.016988
0.018982
0.021972
0.022969
0.018982
0.013001
0.009969
0.008972
0.009969
0.012004
0.012004
0.011007
0.012004
0.013001
0.009969
0.003987
0.000997
0.000997
0.000000
-0.000997
-0.000997
0.001994
0.001994
-0.000997
0.000000
0.003987
0.003987
-0.000997
-0.004029
-0.005026
-0.006023
-0.010010
-0.013001
-0.010010
-0.005026
-0.001994
-0.004029
-0.008016
-0.011007
-0.012004
-0.011007
-0.011007
-0.010010
-0.011007
-0.013001
-0.013998
-0.013998
-0.013998
-0.013001
-0.011007
-0.006023
-0.005026
-0.005026
-0.006023
-0.007020
-0.010010
-0.010010
-0.005026
-0.009013
-0.033021
-0.066997
-0.085024
-0.079998
-0.057029
-0.031027
-0.022014
-0.030030
-0.028992
-0.006023
0.020976
0.029989
0.019979
0.005981
-0.003032
-0.004029
0.000997
0.004984
0.004984
0.003987
0.002991
0.002991
0.000997
-0.001994
-0.004029
-0.005026
-0.005026
-0.005026
-0.005026
-0.006023
-0.008016
-0.006023
-0.001994
0.001994
-0.001994
-0.010010
-0.013998
-0.013998
-0.017030
-0.016033
0.007975
0.036967
-0.030030
-0.370997
-1.054010
-1.747033
-1.818017
-1.050022
-0.059022
0.410996
0.326969
0.153973
0.112977
0.094992
0.039999
0.008972
0.020976
0.035970
0.041993
0.044983
0.048971
0.053000
0.058981
0.066000
0.069988
0.067994
0.067994
0.069988
0.071981
0.067994
0.059978
0.056987
0.058981
0.059978
0.054993
0.049967
0.047974
0.042989
0.033976
0.027995
0.026001
0.024008
0.018982
0.018982
0.021972
0.020976
0.012004
0.007975
0.013001
0.014994
0.004984
-0.004029
-0.003032
0.002991
0.005981
0.005981
0.003987
0.000997
0.000000
0.005981
0.013001
0.011007
0.000000
-0.009013
-0.010010
-0.007020
-0.003032
0.000997
0.002991
0.001994
0.000997
0.000997
-0.000997
-0.005026
-0.008016
-0.007020
-0.006023
-0.008016
-0.012004
-0.014994
-0.013001
-0.009013
-0.009013
-0.010010
-0.007020
-0.004029
-0.006023
-0.013001
-0.018026
-0.016033
-0.013001
-0.014994
-0.016033
-0.012004
-0.006023
-0.004029
-0.006023
-0.009013
-0.013001
-0.014994
-0.012004
-0.019023
-0.045025
-0.075013
-0.086020
-0.071026
-0.046022
-0.030030
-0.027995
-0.031027
-0.019023
0.006978
0.026998
0.026998
0.013998
0.001994
-0.001994
0.000997
0.006978
0.014994
0.018982
0.019979
0.015991
0.008972
0.007975
0.013001
0.017985
0.013001
0.000997
-0.004029
0.004984
0.013001
0.005981
-0.003032
-0.003032
0.000000
-0.004029
-0.005026
0.000000
-0.001994
-0.007020
0.007975
0.034973
0.035970
-0.064006
-0.440029
-1.193030
-1.923019
-1.883021
-0.937004
0.096986
0.455979
0.276005
0.098980
0.082988
0.075969
0.030986
0.009969
0.021972
0.033976
0.040996
0.051006
0.056987
0.058981
0.060974
0.066997
0.071981
0.072978
0.071981
0.069988
0.070985
0.070985
0.070985
0.070985
0.068991
0.067994
0.067994
0.066997
0.058981
0.047974
0.041993
0.042989
0.040996
0.033976
0.026998
0.025004
0.024008
0.022969
0.022969
0.022969
0.021972
0.017985
0.014994
0.015991
0.015991
0.012004
0.004984
0.001994
0.002991
0.003987
0.001994
0.001994
0.004984
0.007975
0.008972
0.004984
0.000997
-0.000997
-0.000997
-0.001994
-0.003032
0.000000
0.000997
-0.000997
-0.005026
-0.009013
-0.011007
-0.009013
-0.006023
-0.008016
-0.010010
-0.010010
-0.011007
-0.012004
-0.012004
-0.011007
-0.011007
-0.012004
-0.014994
-0.018026
-0.019023
-0.018026
-0.014994
-0.013001
-0.013998
-0.016033
-0.016033
-0.016033
-0.017030
-0.017030
-0.017030
-0.016033
-0.013001
-0.013998
-0.026998
-0.057029
-0.089011
-0.098024
-0.077007
-0.046022
-0.027995
-0.027995
-0.031027
-0.019023
0.005981
0.020976
0.014994
0.000997
-0.005026
-0.005026
-0.004029
-0.001994
0.000997
0.000997
-0.001994
-0.006023
-0.008016
-0.007020
-0.005026
-0.004029
-0.005026
-0.006023
-0.005026
-0.001994
-0.005026
-0.013001
-0.014994
-0.012004
-0.009013
-0.011007
-0.013001
-0.014994
-0.016033
-0.016033
-0.018026
-0.013998
0.009969
0.033976
-0.052003
-0.434006
-1.153031
-1.820011
-1.795006
-0.949007
0.024008
0.419967
0.298974
0.136985
0.106996
0.090008
0.039002
0.014994
0.025004
0.033976
0.033976
0.035970
0.040996
0.044983
0.052003
0.059978
0.064006
0.064006
0.066000
0.068991
0.068991
0.065003
0.059978
0.060974
0.062968
0.058981
0.051006
0.044983
0.040996
0.035970
0.032979
0.030986
0.027995
0.021972
0.017985
0.015991
0.013001
0.004984
-0.001994
0.002991
0.015991
0.019979
0.009969
0.001994
0.001994
0.003987
0.001994
-0.000997
-0.001994
-0.001994
-0.003032
-0.005026
-0.006023
-0.006023
-0.006023
-0.008016
-0.009013
-0.009013
-0.006023
-0.004029
-0.005026
-0.007020
-0.008016
-0.006023
-0.003032
-0.005026
-0.009013
-0.010010
-0.010010
-0.010010
-0.011007
-0.011007
-0.013001
-0.017030
-0.020020
-0.019023
-0.014994
-0.013001
-0.016033
-0.019023
-0.020020
-0.017030
-0.014994
-0.013998
-0.016033
-0.017030
-0.016033
-0.013001
-0.013001
-0.013998
-0.012004
-0.011007
-0.012004
-0.011007
-0.009013
-0.009013
-0.018026
-0.041993
-0.074017
-0.092002
-0.079001
-0.049012
-0.026998
-0.022014
-0.025004
-0.024008
-0.007020
0.015991
0.026998
0.018982
0.004984
-0.001994
-0.004029
-0.001994
0.002991
0.006978
0.004984
0.001994
0.001994
0.001994
-0.000997
-0.006023
-0.007020
-0.005026
-0.000997
-0.000997
-0.004029
-0.004029
-0.000997
0.001994
-0.000997
-0.004029
-0.005026
-0.006023
-0.013001
-0.018026
-0.005026
0.021972
0.031982
-0.045025
-0.370997
-1.063023
-1.795006
-1.866032
-1.044996
-0.021017
0.426987
0.323978
0.158002
0.121990
0.094992
0.034973
0.009969
0.029989
0.043986
0.039002
0.039002
0.054993
0.068991
0.070985
0.066997
0.068991
0.074972
0.077007
0.075969
0.073975
0.069988
0.061971
0.060974
0.066997
0.069988
0.068991
0.065003
0.057984
0.047974
0.041993
0.043986
0.041993
0.032979
0.026998
0.030986
0.033976
0.027995
0.021972
0.024008
0.027995
0.020976
0.008972
0.005981
0.013001
0.016988
0.013001
0.006978
0.011007
0.016988
0.013998
0.005981
0.007975
0.017985
0.024008
0.018982
0.009969
0.007975
0.013998
0.019979
0.018982
0.011007
0.008972
0.016988
0.022969
0.016988
0.008972
0.007975
0.013998
0.016988
0.009969
0.000997
0.000000
0.006978
0.008972
0.005981
0.004984
0.008972
0.011007
0.009969
0.008972
0.005981
0.000000
-0.001994
0.006978
0.016988
0.013998
0.004984
0.006978
0.015991
0.019979
0.016988
0.008972
-0.011007
-0.043031
-0.063010
-0.054993
-0.031027
-0.013998
-0.013998
-0.014994
-0.001994
0.022969
0.040996
0.041993
0.034973
0.031982
0.029989
0.024008
0.021972
0.029989
0.039002
0.043986
0.044983
0.044983
0.040996
0.034973
0.030986
0.029989
0.031982
0.035970
0.036967
0.033976
0.028992
0.026998
0.026998
0.027995
0.025004
0.021972
0.024008
0.028992
0.025004
0.022969
0.042989
0.070985
0.053000
-0.122032
-0.632007
-1.438007
-1.968999
-1.585999
-0.503994
0.333989
0.442978
0.211998
0.109987
0.123984
0.093995
0.042989
0.039999
0.061971
0.070985
0.071981
0.072978
0.078004
0.085979
0.092998
0.096986
0.098980
0.102967
0.104005
0.102967
0.104005
0.105999
0.104005
0.099976
0.097983
0.093995
0.087973
0.081991
0.080995
0.079998
0.073975
0.066000
0.060974
0.058981
0.056987
0.053000
0.048971
0.045980
0.043986
0.042989
0.041993
0.041993
0.040996
0.039999
0.038005
0.035970
0.036967
0.039002
0.038005
0.033976
0.033976
0.035970
0.034973
0.030986
0.029989
0.033976
0.039002
0.039002
0.035970
0.030986
0.028992
0.031982
0.038005
0.038005
0.032979
0.026001
0.022969
0.024008
0.024008
0.025004
0.025004
0.026001
0.026001
0.026001
0.024008
0.024008
0.026001
0.026001
0.022969
0.022969
0.026001
0.026001
0.022969
0.019979
0.019979
0.024008
0.032979
0.038005
0.033976
0.026001
0.025004
0.026998
0.026001
0.026998
0.029989
0.017985
-0.011007
-0.037008
-0.040996
-0.026998
-0.001994
0.017985
0.020976
0.013001
0.018982
0.044983
0.061971
0.057984
0.043986
0.034973
0.033976
0.039999
0.045980
0.046977
0.043986
0.042989
0.042989
0.043986
0.042989
0.040996
0.039999
0.038005
0.038005
0.040996
0.042989
0.039999
0.034973
0.033976
0.038005
0.041993
0.039002
0.033976
0.024008
0.019979
0.034973
0.060974
0.068991
0.006978
-0.276005
-0.935010
-1.706992
-1.880030
-1.126033
-0.067994
0.457973
0.387985
0.207969
0.163983
0.149985
0.092998
0.055990
0.064006
0.078004
0.081991
0.085979
0.094992
0.100973
0.106996
0.110983
0.113974
0.114971
0.117006
0.119997
0.120993
0.120993
0.119000
0.115968
0.109987
0.104005
0.101970
0.100973
0.095989
0.088969
0.084982
0.080995
0.079001
0.078004
0.073975
0.069988
0.067994
0.066997
0.064006
0.060974
0.057984
0.055990
0.053000
0.051006
0.046977
0.043986
0.044983
0.046977
0.046977
0.042989
0.040996
0.041993
0.043986
0.044983
0.044983
0.041993
0.036967
0.036967
0.040996
0.043986
0.044983
0.046977
0.047974
0.044983
0.039999
0.036967
0.035970
0.036967
0.038005
0.034973
0.028992
0.025004
0.026998
0.033976
0.036967
0.033976
0.027995
0.026001
0.029989
0.033976
0.031982
0.026998
0.024008
0.026998
0.031982
0.032979
0.032979
0.034973
0.036967
0.035970
0.035970
0.035970
0.030986
0.022969
0.016988
0.020976
0.022969
0.005981
-0.025004
-0.043031
-0.026998
0.006978
0.026998
0.026001
0.020976
0.029989
0.049967
0.061971
0.055990
0.045980
0.046977
0.049967
0.044983
0.039002
0.039999
0.046977
0.052003
0.052003
0.052003
0.049967
0.046977
0.043986
0.041993
0.041993
0.040996
0.040996
0.040996
0.041993
0.039999
0.032979
0.024008
0.025004
0.032979
0.038005
0.036967
0.041993
0.065003
0.092002
0.034973
-0.304997
-1.024021
-1.761030
-1.836999
-1.043003
-0.032024
0.440984
0.365971
0.205975
0.170006
0.147992
0.086976
0.051006
0.057984
0.070985
0.077007
0.082988
0.092002
0.099976
0.105002
0.110983
0.118003
0.117006
0.108990
0.101970
0.105002
0.113974
0.120993
0.119997
0.110983
0.101970
0.098980
0.098980
0.095989
0.087973
0.082988
0.084982
0.086976
0.080995
0.071981
0.066000
0.066000
0.066997
0.064006
0.060974
0.061971
0.064006
0.066000
0.061971
0.055990
0.053996
0.055990
0.056987
0.057984
0.055990
0.052003
0.048971
0.049967
0.053996
0.053996
0.049967
0.047974
0.051006
0.057984
0.058981
0.054993
0.052003
0.054993
0.054993
0.048971
0.043986
0.045980
0.052003
0.054993
0.053000
0.048971
0.045980
0.044983
0.043986
0.041993
0.039002
0.036967
0.036967
0.039002
0.039002
0.036967
0.033976
0.033976
0.036967
0.040996
0.041993
0.041993
0.039002
0.039002
0.039002
0.025004
-0.005026
-0.031027
-0.035015
-0.023011
-0.004029
0.013001
0.014994
0.006978
0.015991
0.047974
0.072978
0.073975
0.061971
0.047974
0.039999
0.039002
0.042989
0.047974
0.052003
0.054993
0.054993
0.049967
0.045980
0.044983
0.045980
0.046977
0.046977
0.045980
0.044983
0.046977
0.046977
0.043986
0.039999
0.039999
0.040996
0.039002
0.036967
0.034973
0.028992
0.030986
0.057984
0.087973
0.019979
-0.312016
-1.000013
-1.744997
-1.881027
-1.104019
-0.032024
0.488003
0.381007
0.168967
0.124981
0.124981
0.079001
0.046977
0.053996
0.066997
0.070985
0.079001
0.088969
0.094992
0.097983
0.098980
0.099976
0.101970
0.105999
0.109987
0.112977
0.110983
0.104005
0.098980
0.098980
0.099976
0.095989
0.091005
0.088969
0.086976
0.080995
0.072978
0.067994
0.066000
0.062968
0.060974
0.059978
0.054993
0.051006
0.047974
0.045980
0.043986
0.041993
0.041993
0.042989
0.040996
0.034973
0.032979
0.034973
0.038005
0.039002
0.036967
0.035970
0.038005
0.038005
0.036967
0.035970
0.035970
0.033976
0.032979
0.031982
0.030986
0.027995
0.027995
0.031982
0.035970
0.032979
0.027995
0.027995
0.032979
0.033976
0.028992
0.022969
0.019979
0.022969
0.024008
0.021972
0.017985
0.016988
0.018982
0.022969
0.022969
0.021972
0.020976
0.019979
0.018982
0.018982
0.021972
0.022969
0.020976
0.019979
0.022969
0.024008
0.021972
0.019979
0.013001
-0.009013
-0.044028
-0.060019
-0.040996
-0.008016
0.008972
0.005981
-0.001994
0.004984
0.026001
0.047974
0.053000
0.041993
0.027995
0.020976
0.022969
0.027995
0.033976
0.038005
0.038005
0.038005
0.036967
0.034973
0.032979
0.029989
0.026998
0.024008
0.022969
0.024008
0.026998
0.026001
0.019979
0.015991
0.016988
0.020976
0.021972
0.019979
0.013998
0.009969
0.027995
0.065003
0.058981
-0.118003
-0.613025
-1.368020
-1.881027
-1.571004
-0.579008
0.264001
0.451991
0.271976
0.157005
0.141969
0.104005
0.052003
0.041993
0.055990
0.060974
0.062968
0.068991
0.075969
0.078004
0.081991
0.086976
0.091005
0.092002
0.094992
0.097983
0.097983
0.096986
0.095989
0.095989
0.092998
0.086976
0.079001
0.071981
0.068991
0.065003
0.058981
0.053996
0.049967
0.046977
0.044983
0.042989
0.041993
0.039999
0.036967
0.031982
0.030986
0.032979
0.032979
0.027995
0.022969
0.020976
0.024008
0.026998
0.026001
0.022969
0.022969
0.022969
0.022969
0.021972
0.022969
0.024008
0.022969
0.022969
0.026001
0.028992
0.024008
0.014994
0.013001
0.018982
0.022969
0.018982
0.015991
0.020976
0.027995
0.026001
0.015991
0.005981
0.003987
0.006978
0.009969
0.008972
0.004984
0.001994
0.000997
0.002991
0.004984
0.003987
0.000997
-0.000997
0.004984
0.011007
0.012004
0.008972
0.009969
0.011007
0.005981
0.000000
-0.000997
0.003987
0.005981
-0.009013
-0.038005
-0.062013
-0.063010
-0.048015
-0.026998
-0.006023
0.000000
-0.012004
-0.014994
0.007975
0.036967
0.042989
0.030986
0.016988
0.013001
0.017985
0.024008
0.024008
0.020976
0.021972
0.025004
0.024008
0.017985
0.014994
0.019979
0.022969
0.018982
0.012004
0.013001
0.017985
0.017985
0.009969
0.002991
0.000000
0.000997
0.005981
0.008972
0.002991
0.004984
0.029989
0.053996
-0.005026
-0.320032
-1.007033
-1.763024
-1.893031
-1.114029
-0.064006
0.437994
0.347986
0.159995
0.114971
0.101970
0.049967
0.021972
0.035970
0.052003
0.055990
0.061971
0.066997
0.066997
0.067994
0.075969
0.084982
0.086976
0.081991
0.081991
0.088969
0.092998
0.087973
0.082988
0.083985
0.084982
0.078004
0.067994
0.064006
0.066000
0.061971
0.049967
0.042989
0.046977
0.052003
0.048971
0.040996
0.035970
0.036967
0.038005
0.034973
0.026998
0.021972
0.026998
0.033976
0.032979
0.026001
0.022969
0.026001
0.027995
0.026001
0.024008
0.025004
0.026001
0.025004
0.020976
0.018982
0.022969
0.028992
0.028992
0.022969
0.019979
0.019979
0.020976
0.019979
0.019979
0.020976
0.021972
0.019979
0.016988
0.013998
0.013001
0.013001
0.011007
0.012004
0.013001
0.013001
0.012004
0.008972
0.005981
0.003987
0.002991
0.002991
0.003987
0.005981
0.005981
0.004984
0.003987
0.003987
0.004984
-0.005026
-0.033021
-0.064006
-0.070029
-0.050009
-0.026001
-0.013998
-0.013998
-0.016033
-0.005026
0.018982
0.036967
0.034973
0.022969
0.013998
0.008972
0.008972
0.015991
0.021972
0.025004
0.025004
0.024008
0.021972
0.019979
0.018982
0.015991
0.013001
0.013001
0.013001
0.009969
0.004984
0.004984
0.006978
0.008972
0.007975
0.005981
0.006978
0.007975
0.004984
0.002991
0.012004
0.033976
0.049967
-0.028992
-0.403021
-1.150996
-1.861007
-1.835005
-0.949007
0.052003
0.444972
0.312971
0.147992
0.118003
0.096986
0.044983
0.021972
0.034973
0.045980
0.048971
0.053996
0.060974
0.065003
0.067994
0.070985
0.077007
0.079998
0.080995
0.082988
0.084982
0.081991
0.079998
0.080995
0.081991
0.078004
0.069988
0.065003
0.060974
0.056987
0.053000
0.047974
0.041993
0.035970
0.031982
0.029989
0.029989
0.030986
0.031982
0.029989
0.024008
0.020976
0.024008
0.026001
0.022969
0.016988
0.013001
0.012004
0.013001
0.013001
0.012004
0.009969
0.011007
0.013001
0.013001
0.009969
0.004984
0.002991
0.004984
0.006978
0.005981
0.003987
0.003987
0.004984
0.004984
0.004984
0.003987
0.001994
0.001994
0.002991
0.001994
0.000997
0.000000
0.000997
0.001994
0.000997
-0.004029
-0.006023
-0.005026
-0.000997
-0.000997
-0.003032
-0.005026
-0.005026
-0.005026
-0.006023
-0.005026
-0.003032
0.000000
0.000997
-0.000997
-0.001994
-0.004029
-0.004029
-0.003032
-0.011007
-0.034018
-0.062013
-0.074017
-0.060019
-0.030030
-0.009013
-0.010010
-0.019023
-0.011007
0.013001
0.030986
0.030986
0.018982
0.007975
0.004984
0.008972
0.012004
0.012004
0.011007
0.013001
0.016988
0.019979
0.013998
0.005981
0.001994
0.001994
0.002991
0.002991
0.004984
0.005981
0.008972
0.011007
0.009969
0.002991
-0.003032
-0.005026
-0.005026
-0.005026
-0.001994
0.014994
0.040996
0.026001
-0.196007
-0.790009
-1.570008
-1.906031
-1.361000
-0.340011
0.330998
0.383001
0.205975
0.130007
0.113974
0.066997
0.027995
0.030986
0.044983
0.047974
0.048971
0.054993
0.060974
0.065003
0.067994
0.071981
0.078004
0.079998
0.078004
0.074972
0.073975
0.077007
0.077007
0.072978
0.067994
0.062968
0.059978
0.059978
0.059978
0.054993
0.044983
0.038005
0.036967
0.039002
0.038005
0.029989
0.022969
0.021972
0.024008
0.021972
0.015991
0.013001
0.013001
0.012004
0.012004
0.014994
0.015991
0.011007
0.004984
0.004984
0.009969
0.013001
0.011007
0.009969
0.013001
0.012004
0.008972
0.006978
0.008972
0.008972
0.004984
0.003987
0.004984
0.005981
0.005981
0.006978
0.007975
0.006978
0.003987
0.000000
-0.001994
-0.000997
0.000000
-0.001994
-0.007020
-0.006023
0.000000
0.004984
0.004984
0.001994
0.000000
-0.001994
-0.004029
-0.005026
-0.003032
-0.001994
-0.001994
-0.001994
0.000000
0.001994
0.001994
-0.000997
-0.004029
-0.006023
-0.012004
-0.026001
-0.048015
-0.065003
-0.061016
-0.035015
-0.009013
-0.003032
-0.014994
-0.020020
-0.004029
0.016988
0.020976
0.014994
0.014994
0.017985
0.015991
0.014994
0.017985
0.019979
0.018982
0.019979
0.020976
0.016988
0.006978
-0.003032
-0.004029
0.002991
0.011007
0.012004
0.011007
0.008972
0.006978
0.005981
0.004984
0.002991
0.000000
-0.001994
-0.003032
0.004984
0.026001
0.046977
0.008972
-0.262007
-0.925997
-1.723025
-1.953008
-1.255001
-0.191023
0.397995
0.368006
0.176984
0.111980
0.095989
0.049967
0.019979
0.029989
0.047974
0.052003
0.051006
0.054993
0.066997
0.078004
0.074972
0.064006
0.061971
0.073975
0.088969
0.094992
0.093995
0.086976
0.081991
0.084982
0.086976
0.079001
0.065003
0.059978
0.061971
0.059978
0.053996
0.048971
0.046977
0.043986
0.041993
0.041993
0.039002
0.033976
0.031982
0.032979
0.033976
0.033976
0.030986
0.024008
0.020976
0.026001
0.028992
0.026998
0.025004
0.026998
0.028992
0.026998
0.024008
0.025004
0.027995
0.025004
0.016988
0.013998
0.016988
0.021972
0.021972
0.019979
0.016988
0.015991
0.018982
0.021972
0.021972
0.016988
0.013998
0.013001
0.012004
0.009969
0.006978
0.005981
0.006978
0.008972
0.006978
0.004984
0.002991
0.002991
0.003987
0.002991
0.000997
0.000000
0.000997
0.002991
0.005981
0.007975
0.008972
0.000997
-0.018026
-0.044028
-0.063010
-0.063010
-0.039002
-0.012004
-0.006023
-0.017030
-0.013998
0.013001
0.039002
0.043986
0.031982
0.017985
0.009969
0.008972
0.013001
0.016988
0.017985
0.018982
0.020976
0.020976
0.017985
0.014994
0.014994
0.016988
0.015991
0.012004
0.007975
0.008972
0.011007
0.011007
0.006978
0.004984
0.002991
0.001994
0.000997
0.000997
-0.005026
-0.008016
0.009969
0.035970
0.021972
-0.143007
-0.632007
-1.420022
-1.955999
-1.607016
-0.555000
0.293990
0.436000
0.221967
0.111980
0.112977
0.079998
0.027995
0.020976
0.036967
0.040996
0.041993
0.052003
0.061971
0.065003
0.066997
0.069988
0.075969
0.084982
0.092002
0.091005
0.081991
0.074972
0.073975
0.073975
0.069988
0.066000
0.062968
0.061971
0.057984
0.053996
0.047974
0.042989
0.039999
0.036967
0.032979
0.027995
0.026001
0.022969
0.020976
0.018982
0.015991
0.013998
0.011007
0.008972
0.008972
0.009969
0.012004
0.008972
0.003987
0.004984
0.012004
0.013998
0.009969
0.005981
0.005981
0.005981
0.002991
0.000997
0.002991
0.003987
0.003987
