---
Mammal:            mouse
Fs:                1000
Integration_level: electrocardiogram

Channels:

    - type:   electrography
      name:   Data
      unit:   mV
      enable: yes

---

-0.011156
-0.036028
-0.050110
-0.039137
-0.029078
-0.041148
-0.052121
-0.040051
-0.018105
-0.018105
-0.035113
-0.044075
-0.037125
-0.032004
-0.042063
-0.055048
-0.056145
-0.055048
-0.054133
-0.039137
-0.016094
-0.016094
-0.051024
-0.082114
-0.088149
-0.091075
-0.110095
-0.123994
-0.107169
-0.064009
-0.014996
0.019934
0.028895
0.011887
-0.017008
-0.038039
-0.038039
-0.013168
0.017008
0.019934
-0.009144
-0.029993
-0.017008
0.000000
-0.008047
-0.022129
-0.013168
0.002012
-0.001097
-0.016094
-0.016094
0.000000
0.012985
0.014996
0.009876
0.002012
0.003841
0.010973
-0.031090
-0.208120
-0.563094
-0.967995
-1.106071
-0.755120
-0.143014
0.233906
0.198976
0.022860
-0.042063
-0.021031
-0.014996
-0.029993
-0.038039
-0.040051
-0.038039
-0.033102
-0.022129
-0.001097
0.021946
0.030907
0.024872
0.022860
0.025969
0.022860
0.017008
0.017008
0.019934
0.015911
0.013899
0.017008
0.013899
-0.004023
-0.017008
-0.008047
0.010973
0.008961
-0.020117
-0.051024
-0.059071
-0.043160
-0.027067
-0.023043
-0.025055
-0.026152
-0.025055
-0.025055
-0.026152
-0.027067
-0.026152
-0.026152
-0.029993
-0.035113
-0.034016
-0.034016
-0.042063
-0.061997
-0.089064
-0.122165
-0.138990
-0.120154
-0.074067
-0.032004
-0.017008
-0.029993
-0.054133
-0.064009
-0.057059
-0.051024
-0.047001
-0.038039
-0.034016
-0.040051
-0.041148
-0.037125
-0.049012
-0.074067
-0.078091
-0.060168
-0.049012
-0.055048
-0.055048
-0.044075
-0.044989
-0.054133
-0.057059
-0.063094
-0.078091
-0.068032
-0.034016
-0.071141
-0.287125
-0.674104
-1.046086
-1.094001
-0.681053
-0.104060
0.181968
0.111009
-0.024140
-0.043160
-0.020117
-0.027067
-0.049012
-0.066020
-0.082114
-0.087052
-0.068032
-0.038039
-0.022129
-0.020117
-0.022129
-0.020117
-0.020117
-0.016094
-0.003109
0.015911
0.026884
0.023958
0.013899
0.002926
-0.010059
-0.022129
-0.026152
-0.017008
-0.011156
-0.020117
-0.031090
-0.026152
-0.022129
-0.038039
-0.059071
-0.051024
-0.027067
-0.028164
-0.064009
-0.088149
-0.068032
-0.032004
-0.020117
-0.029993
-0.040051
-0.039137
-0.016094
0.019934
0.023958
-0.023043
-0.083029
-0.122165
-0.132041
-0.100037
-0.034016
0.013899
0.007864
-0.026152
-0.047001
-0.037125
-0.012070
0.000000
-0.003109
0.002926
0.018837
0.022860
0.010973
-0.012070
-0.038039
-0.044989
-0.026152
-0.002012
0.028895
0.064923
0.054865
-0.014082
-0.069129
-0.058157
-0.021031
-0.004023
-0.013168
-0.042063
-0.066020
-0.042063
-0.034016
-0.232992
-0.702999
-1.141002
-1.096013
-0.539137
0.039868
0.214887
0.073884
-0.054133
-0.052121
-0.029993
-0.047001
-0.047001
0.008961
0.050841
0.023958
-0.006035
0.032919
0.083943
0.069861
0.028895
0.015911
0.021946
0.021946
0.020849
0.032919
0.064009
0.085955
0.069861
0.059985
0.102963
0.141917
0.108998
0.051939
0.034930
0.032004
0.025969
0.049927
0.085955
0.067849
0.010973
0.002926
0.049927
0.061997
0.009876
-0.014996
0.041880
0.098939
0.067849
-0.002012
-0.009144
0.045903
0.071873
0.033833
-0.020117
-0.049012
-0.054133
-0.039137
-0.013168
0.002012
0.000914
-0.011156
-0.029078
-0.016094
0.045903
0.091990
0.055962
-0.009144
-0.028164
-0.022129
-0.024140
-0.003109
0.044989
0.051939
-0.009144
-0.058157
-0.027067
0.037857
0.043892
-0.005121
-0.025055
0.004938
0.022860
-0.005121
-0.040051
-0.036028
-0.002012
0.002012
-0.043160
-0.091990
-0.201170
-0.557059
-1.091989
-1.303035
-0.851134
-0.117045
0.260973
0.167886
-0.021031
-0.044989
0.028895
0.055962
0.007864
-0.046086
-0.039137
0.013899
0.044989
0.029993
0.019934
0.037857
0.029993
-0.017008
-0.037125
0.007864
0.059985
0.074982
0.064009
0.041880
0.019934
0.017008
0.032004
0.047001
0.055962
0.041880
-0.009144
-0.050110
-0.031090
0.008961
0.009876
-0.004023
-0.001097
-0.017008
-0.074067
-0.105157
-0.060168
0.000000
0.002926
-0.033102
-0.055048
-0.060168
-0.067118
-0.073153
-0.074067
-0.083029
-0.097110
-0.103146
-0.107169
-0.120154
-0.135150
-0.131127
-0.102048
-0.067118
-0.056145
-0.074067
-0.083029
-0.065106
-0.059071
-0.085040
-0.106072
-0.089064
-0.060168
-0.055048
-0.078091
-0.097110
-0.086138
-0.067118
-0.081017
-0.108998
-0.103146
-0.080102
-0.079005
-0.089064
-0.087052
-0.090161
-0.104060
-0.099122
-0.065106
-0.042063
-0.054133
-0.082114
-0.170995
-0.454096
-0.943123
-1.318032
-1.194038
-0.619056
-0.070044
0.108998
0.023958
-0.061083
-0.066020
-0.055048
-0.066020
-0.085040
-0.096013
-0.105157
-0.117045
-0.112107
-0.076079
-0.046086
-0.049012
-0.052121
-0.046086
-0.061083
-0.074067
-0.039137
0.006950
-0.001097
-0.043160
-0.056145
-0.036028
-0.020117
-0.029078
-0.052121
-0.058157
-0.033102
-0.020117
-0.053036
-0.086138
-0.057059
-0.006035
-0.013168
-0.074067
-0.115033
-0.114118
-0.097110
-0.080102
-0.059071
-0.042063
-0.043160
-0.055048
-0.059071
-0.044989
-0.035113
-0.061997
-0.122165
-0.164045
-0.153072
-0.123080
-0.108998
-0.093087
-0.068032
-0.066020
-0.096013
-0.112107
-0.083029
-0.039137
-0.021031
-0.034016
-0.053036
-0.050110
-0.031090
-0.032004
-0.066020
-0.086138
-0.064009
-0.034016
-0.044075
-0.089064
-0.126006
-0.122165
-0.089064
-0.076993
-0.098025
-0.102048
-0.074067
-0.063094
-0.075165
-0.076079
-0.093087
-0.200073
-0.464155
-0.885150
-1.255120
-1.214155
-0.682150
-0.063094
0.213972
0.163862
0.075896
0.094001
0.128932
0.092904
0.034930
0.037857
0.082846
0.095830
0.074982
0.067849
0.086869
0.099854
0.103877
0.122897
0.156913
0.170995
0.147952
0.115947
0.105889
0.113936
0.123994
0.131858
0.131858
0.114850
0.087966
0.070958
0.072970
0.083943
0.084857
0.073884
0.062911
0.062911
0.059985
0.048830
0.052853
0.080834
0.098939
0.086869
0.071873
0.084857
0.103877
0.100951
0.081931
0.074982
0.080834
0.077908
0.056876
0.025969
-0.005121
-0.029993
-0.028164
0.017922
0.080834
0.107900
0.083943
0.055962
0.062911
0.085955
0.094916
0.088881
0.084857
0.085955
0.083943
0.071873
0.059985
0.059985
0.057974
0.039868
0.022860
0.027981
0.036942
0.033833
0.028895
0.027981
0.014996
-0.004023
-0.004023
0.006950
0.006950
0.014996
0.032919
-0.031090
-0.279993
-0.700073
-1.083028
-1.106071
-0.654170
-0.055048
0.239941
0.181968
0.057974
0.032919
0.044989
0.020849
-0.023043
-0.044075
-0.034016
-0.013168
-0.006035
-0.003109
0.009876
0.018837
0.011887
0.002012
0.002926
0.003841
-0.002012
-0.004023
-0.001097
0.000914
0.000914
0.009876
0.022860
0.028895
0.018837
-0.003109
-0.023043
-0.021031
-0.002012
0.005852
-0.008047
-0.020117
-0.016094
-0.014996
-0.039137
-0.069129
-0.068032
-0.047001
-0.042063
-0.061083
-0.069129
-0.052121
-0.039137
-0.046086
-0.052121
-0.044989
-0.048098
-0.074067
-0.108083
-0.136064
-0.145026
-0.118142
-0.067118
-0.037125
-0.051024
-0.079005
-0.095099
-0.094001
-0.079005
-0.057059
-0.042063
-0.046086
-0.060168
-0.070044
-0.070044
-0.065106
-0.053036
-0.036028
-0.040051
-0.079005
-0.107169
-0.082114
-0.034016
-0.019020
-0.042063
-0.069129
-0.078091
-0.072056
-0.068032
-0.065106
-0.054133
-0.074067
-0.226042
-0.559071
-0.944038
-1.091989
-0.802121
-0.243050
0.154901
0.189832
0.060900
0.002012
0.006950
-0.007132
-0.034016
-0.037125
-0.029078
-0.034016
-0.049012
-0.049012
-0.025055
0.003841
0.011887
-0.001097
-0.013168
-0.009144
0.000000
0.006950
0.012985
0.017922
0.018837
0.012985
0.000914
-0.009144
-0.009144
0.000000
-0.001097
-0.012070
-0.019020
-0.014082
-0.009144
-0.011156
-0.019020
-0.025055
-0.026152
-0.023043
-0.026152
-0.035113
-0.043160
-0.041148
-0.038039
-0.044075
-0.051024
-0.046086
-0.035113
-0.034016
-0.050110
-0.071141
-0.090161
-0.108083
-0.125091
-0.123080
-0.091990
-0.049012
-0.032004
-0.046086
-0.058157
-0.050110
-0.042063
-0.046086
-0.049012
-0.039137
-0.028164
-0.029078
-0.035113
-0.037125
-0.036028
-0.040051
-0.049012
-0.053036
-0.042063
-0.032004
-0.047001
-0.076079
-0.081017
-0.057059
-0.046086
-0.061997
-0.075165
-0.061083
-0.024140
-0.010059
-0.108998
-0.407096
-0.847110
-1.161119
-1.043160
-0.512070
0.024872
0.207937
0.109912
0.004938
-0.016094
-0.028164
-0.044989
-0.049012
-0.060168
-0.074067
-0.049012
-0.013168
-0.029078
-0.070044
-0.070044
-0.044075
-0.029993
-0.011156
0.015911
0.008961
-0.022129
-0.022129
0.008961
0.020849
-0.001097
-0.029993
-0.041148
-0.029993
-0.001097
0.029993
0.036942
0.008961
-0.024140
-0.039137
-0.046086
-0.067118
-0.083029
-0.073153
-0.056145
-0.056145
-0.060168
-0.052121
-0.039137
-0.031090
-0.025055
-0.025055
-0.033102
-0.039137
-0.036028
-0.036028
-0.051024
-0.081017
-0.114118
-0.128018
-0.101134
-0.043160
-0.001097
0.000000
-0.018105
-0.025055
-0.019020
-0.016094
-0.018105
-0.021031
-0.021031
-0.017008
-0.020117
-0.034016
-0.047001
-0.039137
-0.013168
0.005852
0.003841
-0.013168
-0.032004
-0.042063
-0.035113
-0.022129
-0.021031
-0.029993
-0.035113
-0.037125
-0.029078
-0.012070
-0.040051
-0.209034
-0.546086
-0.926115
-1.083028
-0.802121
-0.238113
0.156913
0.166971
0.026884
-0.014082
0.007864
-0.011156
-0.047001
-0.056145
-0.052121
-0.048098
-0.037125
-0.027067
-0.028164
-0.037125
-0.044075
-0.041148
-0.025055
-0.005121
0.002012
-0.005121
-0.013168
-0.010059
-0.004023
-0.004023
-0.009144
-0.012070
-0.013168
-0.020117
-0.037125
-0.048098
-0.041148
-0.028164
-0.023043
-0.020117
-0.018105
-0.029993
-0.058157
-0.075165
-0.058157
-0.028164
-0.020117
-0.035113
-0.044989
-0.039137
-0.031090
-0.031090
-0.037125
-0.049012
-0.061997
-0.076993
-0.105157
-0.140088
-0.146123
-0.103146
-0.048098
-0.026152
-0.032004
-0.036028
-0.031090
-0.029993
-0.034016
-0.034016
-0.029078
-0.023043
-0.017008
-0.013168
-0.016094
-0.027067
-0.036028
-0.038039
-0.040051
-0.043160
-0.042063
-0.042063
-0.043160
-0.041148
-0.038039
-0.042063
-0.051024
-0.054133
-0.044989
-0.032004
-0.035113
-0.079005
-0.235004
-0.599122
-1.072055
-1.248171
-0.837052
-0.146123
0.232992
0.152889
-0.052121
-0.114118
-0.081017
-0.069129
-0.074067
-0.068032
-0.056145
-0.053036
-0.052121
-0.049012
-0.042063
-0.027067
-0.005121
0.003841
-0.012070
-0.036028
-0.035113
-0.011156
0.006950
0.005852
-0.001097
0.002926
0.008961
0.004938
-0.006035
-0.014996
-0.014996
-0.008047
-0.002012
-0.007132
-0.024140
-0.039137
-0.042063
-0.037125
-0.031090
-0.023043
-0.018105
-0.026152
-0.041148
-0.044075
-0.029078
-0.017008
-0.027067
-0.044075
-0.042063
-0.027067
-0.027067
-0.046086
-0.065106
-0.083029
-0.105157
-0.112107
-0.083029
-0.035113
-0.009144
-0.014082
-0.028164
-0.032004
-0.031090
-0.031090
-0.029078
-0.025055
-0.022129
-0.024140
-0.029078
-0.032004
-0.028164
-0.016094
-0.007132
-0.009144
-0.021031
-0.032004
-0.035113
-0.031090
-0.027067
-0.032004
-0.043160
-0.050110
-0.043160
-0.025055
-0.019020
-0.044989
-0.134053
-0.380029
-0.815106
-1.174104
-1.057059
-0.473116
0.073884
0.205925
0.057974
-0.061997
-0.066020
-0.037125
-0.029993
-0.054133
-0.088149
-0.086138
-0.041148
-0.001097
0.002926
-0.008047
-0.007132
-0.002012
0.000914
0.002926
0.005852
0.005852
0.003841
0.003841
0.013899
0.027981
0.032919
0.025969
0.015911
0.012985
0.011887
0.005852
-0.002012
-0.004023
0.000000
0.000914
-0.004023
-0.008047
-0.008047
-0.009144
-0.013168
-0.017008
-0.016094
-0.014996
-0.014996
-0.016094
-0.020117
-0.027067
-0.037125
-0.049012
-0.057059
-0.061083
-0.075165
-0.103146
-0.125091
-0.118142
-0.083029
-0.041148
-0.006035
0.012985
0.009876
-0.011156
-0.033102
-0.043160
-0.052121
-0.065106
-0.058157
-0.023043
0.002012
-0.018105
-0.052121
-0.047001
-0.009144
0.012985
0.000914
-0.013168
-0.010059
-0.004023
-0.009144
-0.013168
-0.009144
-0.001097
-0.003109
-0.011156
-0.014082
-0.013168
-0.032004
-0.160022
-0.512070
-0.999085
-1.208120
-0.833028
-0.155084
0.241953
0.185991
-0.003109
-0.058157
-0.024140
-0.014996
-0.025055
-0.020117
-0.009144
-0.006035
-0.003109
0.003841
0.010973
0.017922
0.025969
0.030907
0.030907
0.028895
0.025969
0.024872
0.026884
0.026884
0.022860
0.017922
0.017922
0.020849
0.021946
0.020849
0.019934
0.015911
0.008961
0.002926
0.002012
0.002926
0.004938
0.003841
0.002012
0.000000
-0.006035
-0.017008
-0.033102
-0.044075
-0.044989
-0.043160
-0.040051
-0.029993
-0.018105
-0.029993
-0.066020
-0.089064
-0.081017
-0.074067
-0.089064
-0.096013
-0.064009
-0.014996
0.008961
0.000000
-0.014996
-0.014996
-0.006035
-0.001097
-0.003109
-0.008047
-0.012070
-0.011156
-0.002012
0.006950
0.004938
-0.007132
-0.018105
-0.019020
-0.010059
-0.006035
-0.013168
-0.019020
-0.014082
-0.010059
-0.016094
-0.031090
-0.041148
-0.034016
-0.020117
-0.034016
-0.136064
-0.410022
-0.862107
-1.214155
-1.065106
-0.441112
0.113936
0.221836
0.070958
-0.010059
0.007864
0.004938
-0.028164
-0.041148
-0.029993
-0.025055
-0.028164
-0.023043
-0.008047
0.000000
-0.006035
-0.013168
-0.002012
0.019934
0.033833
0.033833
0.033833
0.037857
0.035845
0.032919
0.033833
0.033833
0.022860
0.007864
0.002012
0.004938
0.012985
0.022860
0.022860
0.006950
-0.007132
-0.002012
0.002012
-0.014082
-0.029993
-0.017008
0.007864
0.007864
-0.010059
-0.019020
-0.011156
-0.001097
0.000914
-0.005121
-0.016094
-0.029078
-0.044989
-0.065106
-0.081017
-0.071141
-0.027067
0.021946
0.044989
0.033833
0.012985
0.005852
0.021946
0.042977
0.041880
0.017008
-0.004023
-0.003109
0.009876
0.018837
0.024872
0.030907
0.026884
0.009876
-0.003109
0.006950
0.038954
0.059985
0.038954
-0.001097
-0.003109
0.032919
0.044989
0.022860
0.033833
0.072970
0.002926
-0.287125
-0.742136
-1.121068
-1.106071
-0.615033
-0.009144
0.257864
0.174835
0.064009
0.073884
0.091990
0.038954
-0.017008
-0.009144
0.043892
0.085955
0.105889
0.117959
0.122897
0.120885
0.131858
0.154901
0.152889
0.117959
0.091990
0.111009
0.149963
0.150878
0.109912
0.091990
0.139905
0.186906
0.156913
0.105889
0.132955
0.209949
0.218910
0.146854
0.089978
0.100951
0.144843
0.174835
0.160936
0.121982
0.134967
0.210863
0.230980
0.141002
0.074982
0.117959
0.163862
0.133870
0.109912
0.148866
0.166971
0.104974
0.017008
-0.036028
-0.039137
0.030907
0.152889
0.229883
0.205925
0.149963
0.128932
0.121982
0.108998
0.115947
0.146854
0.149963
0.115947
0.100951
0.127835
0.146854
0.130944
0.112838
0.120885
0.130944
0.124909
0.117959
0.121982
0.120885
0.111009
0.106986
0.109912
0.105889
0.101865
0.115947
0.120885
0.041880
-0.211046
-0.667154
-1.122165
-1.163131
-0.631126
0.060900
0.368873
0.259876
0.101865
0.090892
0.114850
0.067849
0.017922
0.037857
0.073884
0.051939
0.010973
0.015911
0.044989
0.054865
0.065838
0.094916
0.120885
0.130944
0.126920
0.097842
0.073884
0.098939
0.137893
0.113936
0.054865
0.059985
0.116862
0.111009
0.028895
-0.031090
-0.032004
-0.005121
0.050841
0.104974
0.047915
-0.115033
-0.182151
-0.063094
0.054865
0.035845
0.002012
0.053950
0.081931
0.007864
-0.071141
-0.066020
-0.020117
-0.004023
-0.014082
-0.039137
-0.084126
-0.132041
-0.137162
-0.090161
-0.041148
-0.020117
-0.003109
0.013899
-0.003109
-0.054133
-0.087052
-0.071141
-0.031090
0.000000
0.014996
0.010973
-0.009144
-0.032004
-0.038039
-0.031090
-0.027067
-0.036028
-0.043160
-0.032004
-0.007132
0.008961
-0.002012
-0.029993
-0.048098
-0.043160
-0.023043
0.006950
0.029993
-0.032004
-0.284016
-0.741039
-1.193123
-1.269019
-0.808156
-0.143014
0.213972
0.159839
-0.008047
-0.074067
-0.066020
-0.040051
-0.005121
0.005852
-0.027067
-0.055048
-0.031090
0.019934
0.043892
0.036942
0.030907
0.032004
0.027981
0.017922
0.021946
0.040966
0.053950
0.053950
0.051939
0.055962
0.051939
0.022860
-0.016094
-0.021031
0.013899
0.051939
0.062911
0.050841
0.026884
-0.001097
-0.008047
0.006950
0.005852
-0.027067
-0.041148
0.000000
0.047001
0.036942
-0.012070
-0.044075
-0.036028
-0.006035
0.019934
0.023958
0.009876
-0.017008
-0.054133
-0.081017
-0.063094
-0.014996
-0.001097
-0.031090
-0.031090
0.022860
0.053950
0.018837
-0.008047
0.032919
0.073884
0.040966
-0.020117
-0.023043
0.024872
0.049927
0.037857
0.028895
0.028895
0.009876
-0.014082
-0.004023
0.025969
0.030907
0.019934
0.025969
0.030907
0.000914
-0.028164
-0.009144
0.017922
-0.028164
-0.219093
-0.616130
-1.108083
-1.296086
-0.896123
-0.212143
0.177944
0.138990
0.004938
-0.002012
0.026884
-0.001097
-0.026152
-0.011156
0.002012
0.000914
0.013899
0.021946
-0.003109
-0.020117
0.006950
0.033833
0.023958
0.012985
0.033833
0.064923
0.077908
0.075896
0.070958
0.060900
0.037857
0.007864
-0.002012
0.017922
0.041880
0.045903
0.041880
0.034930
0.014996
0.000000
0.013899
0.026884
0.002926
-0.028164
-0.018105
0.010973
0.009876
-0.011156
-0.009144
0.010973
0.015911
0.000914
-0.011156
0.000000
0.012985
-0.008047
-0.061997
-0.113021
-0.123080
-0.079005
-0.001097
0.056876
0.054865
0.025969
0.015911
0.018837
0.008961
-0.004023
0.005852
0.038954
0.067849
0.067849
0.044989
0.028895
0.026884
0.025969
0.019934
0.012985
0.000914
-0.007132
0.009876
0.041880
0.057974
0.053950
0.044989
0.038954
0.037857
0.042977
0.032919
-0.034016
-0.219093
-0.586137
-1.043160
-1.224030
-0.858998
-0.222019
0.146854
0.109912
-0.054133
-0.130029
-0.118142
-0.078091
-0.072056
-0.112107
-0.128018
-0.076993
-0.022129
-0.017008
-0.034016
-0.034016
-0.014082
0.018837
0.050841
0.055962
0.033833
0.017008
0.015911
0.019934
0.024872
0.025969
0.009876
-0.007132
-0.004023
0.009876
0.023958
0.040966
0.040966
0.005852
-0.022129
-0.009144
0.002926
-0.013168
-0.005121
0.067849
0.154901
0.209949
0.260973
0.316935
0.331931
0.295903
0.255852
0.236832
0.224945
0.216898
0.208851
0.178859
0.121982
0.067849
0.044989
0.059985
0.102963
0.153987
0.178859
0.163862
0.136979
0.128932
0.136979
0.138990
0.132955
0.120885
0.106986
0.098939
0.103877
0.114850
0.119971
0.112838
0.099854
0.092904
0.102963
0.122897
0.139905
0.138990
0.116862
0.097842
0.103877
0.119971
0.113936
0.095830
0.102963
0.111009
-0.003109
-0.353145
-0.840161
-1.123079
-0.907096
-0.320044
0.167886
0.264996
0.126006
0.032919
0.037857
0.049927
0.036942
0.025969
0.022860
0.030907
0.060900
0.094916
0.103877
0.092904
0.094001
0.111009
0.105889
0.066935
0.048830
0.085955
0.130944
0.131858
0.113936
0.116862
0.129846
0.129846
0.116862
0.098939
0.085955
0.085955
0.085955
0.068947
0.039868
0.015911
0.002012
-0.009144
-0.017008
-0.020117
-0.014082
-0.002012
0.010973
0.018837
0.011887
-0.013168
-0.033102
-0.025055
-0.003109
0.004938
-0.005121
-0.023043
-0.042063
-0.069129
-0.107169
-0.134053
-0.106072
-0.022129
0.043892
0.041880
0.004938
-0.016094
-0.018105
-0.018105
-0.012070
0.008961
0.022860
0.007864
-0.023043
-0.033102
-0.013168
0.004938
-0.005121
-0.027067
-0.033102
-0.021031
-0.007132
0.002926
0.004938
-0.003109
-0.017008
-0.032004
-0.043160
-0.038039
-0.021031
-0.034016
-0.126006
-0.369056
-0.794074
-1.197147
-1.163131
-0.597110
0.017008
0.192941
0.017922
-0.118142
-0.090161
-0.036028
-0.037125
-0.048098
-0.029078
-0.005121
-0.011156
-0.034016
-0.032004
0.002926
0.033833
0.029993
0.009876
0.002926
0.011887
0.026884
0.037857
0.034930
0.027981
0.028895
0.029993
0.021946
0.020849
0.035845
0.044989
0.024872
-0.009144
-0.018105
0.003841
0.024872
0.021946
0.012985
0.009876
0.006950
0.002012
0.003841
0.003841
-0.004023
-0.005121
0.008961
0.018837
0.018837
0.009876
-0.008047
-0.025055
-0.029078
-0.038039
-0.076993
-0.118142
-0.111009
-0.059071
-0.011156
0.009876
0.022860
0.038954
0.039868
0.012985
-0.022129
-0.039137
-0.028164
-0.002012
0.017922
0.022860
0.021946
0.012985
-0.020117
-0.063094
-0.076079
-0.060168
-0.043160
-0.014996
0.033833
0.055962
0.022860
-0.013168
-0.014082
-0.014082
-0.028164
-0.018105
0.003841
-0.071141
-0.352048
-0.810168
-1.185076
-1.121068
-0.573153
0.020849
0.220007
0.079920
-0.054133
-0.056145
-0.036028
-0.051024
-0.056145
-0.038039
-0.026152
-0.027067
-0.018105
0.002926
0.011887
0.002012
-0.001097
0.021946
0.048830
0.051939
0.041880
0.041880
0.048830
0.047915
0.039868
0.039868
0.048830
0.054865
0.050841
0.041880
0.032004
0.022860
0.019934
0.026884
0.030907
0.020849
0.007864
0.007864
0.015911
0.015911
0.010973
0.012985
0.017922
0.013899
0.002926
-0.004023
0.000000
0.012985
0.019934
0.010973
-0.008047
-0.021031
-0.036028
-0.061997
-0.083029
-0.071141
-0.027067
0.017008
0.034930
0.021946
-0.003109
-0.013168
0.006950
0.036942
0.037857
0.004938
-0.019020
-0.012070
0.000000
-0.002012
-0.004023
0.008961
0.020849
0.018837
0.000914
-0.020117
-0.027067
-0.012070
0.002012
-0.007132
-0.023043
-0.019020
-0.001097
0.007864
0.009876
-0.020117
-0.191112
-0.593087
-1.066020
-1.219093
-0.832114
-0.190015
0.197879
0.177944
0.021946
-0.031090
-0.008047
-0.002012
-0.014082
-0.012070
-0.001097
0.004938
0.005852
0.008961
0.015911
0.024872
0.034930
0.044989
0.050841
0.053950
0.054865
0.049927
0.042977
0.040966
0.041880
0.038954
0.038954
0.049927
0.061997
0.055962
0.034930
0.021946
0.025969
0.034930
0.034930
0.021946
0.002012
-0.008047
0.007864
0.032004
0.038954
0.029993
0.022860
0.017922
0.010973
0.008961
0.015911
0.020849
0.018837
0.012985
0.010973
0.006950
-0.013168
-0.054133
-0.093087
-0.089064
-0.040051
0.005852
0.013899
0.005852
0.013899
0.028895
0.032004
0.020849
0.010973
0.015911
0.034930
0.048830
0.042977
0.027981
0.018837
0.017008
0.015911
0.015911
0.017008
0.019934
0.017922
0.015911
0.021946
0.029993
0.025969
0.013899
0.006950
0.009876
0.027981
0.042977
-0.008047
-0.204096
-0.569129
-0.996159
-1.188003
-0.887161
-0.268105
0.161851
0.177944
0.029993
-0.027067
-0.009144
-0.008047
-0.024140
-0.027067
-0.013168
0.008961
0.020849
0.017922
0.022860
0.044989
0.052853
0.038954
0.032004
0.051939
0.071873
0.069861
0.055962
0.049927
0.052853
0.051939
0.037857
0.025969
0.033833
0.051939
0.054865
0.040966
0.030907
0.030907
0.032919
0.027981
0.023958
0.026884
0.032919
0.035845
0.034930
0.029993
0.017922
-0.001097
-0.012070
-0.001097
0.025969
0.042977
0.035845
0.017008
0.005852
-0.004023
-0.025055
-0.052121
-0.060168
-0.029078
0.025969
0.064923
0.068947
0.054865
0.047915
0.054865
0.068947
0.073884
0.067849
0.066935
0.079005
0.088881
0.081931
0.064009
0.052853
0.050841
0.053950
0.056876
0.059985
0.056876
0.050841
0.047001
0.045903
0.045903
0.042977
0.042977
0.047001
0.049927
0.038954
-0.007132
-0.183065
-0.595099
-1.103145
-1.256035
-0.799012
-0.104060
0.243965
0.147952
-0.033102
-0.066020
-0.029078
-0.027067
-0.036028
-0.017008
0.004938
0.006950
0.008961
0.024872
0.042977
0.049927
0.052853
0.055962
0.054865
0.047001
0.035845
0.026884
0.029993
0.048830
0.067849
0.068947
0.058888
0.053950
0.052853
0.047001
0.041880
0.044989
0.048830
0.045903
0.040966
0.039868
0.037857
0.032004
0.030907
0.041880
0.055962
0.052853
0.034930
0.026884
0.037857
0.048830
0.039868
0.025969
0.025969
0.037857
0.044989
0.035845
0.017922
-0.008047
-0.041148
-0.069129
-0.059071
0.000914
0.062911
0.077908
0.050841
0.029993
0.029993
0.032919
0.032004
0.038954
0.051939
0.056876
0.054865
0.051939
0.050841
0.043892
0.037857
0.039868
0.044989
0.042977
0.037857
0.040966
0.051939
0.056876
0.055962
0.057974
0.062911
0.049927
0.026884
0.032004
0.053950
0.007864
-0.208120
-0.625091
-1.073153
-1.177030
-0.731163
-0.074067
0.256949
0.175933
0.020849
-0.003109
0.021946
0.015911
0.007864
0.014996
0.012985
0.002012
0.007864
0.033833
0.059985
0.065838
0.059985
0.061997
0.074982
0.085955
0.083943
0.079005
0.077908
0.075896
0.073884
0.076993
0.076993
0.067849
0.060900
0.065838
0.065838
0.047001
0.023958
0.017922
0.020849
0.021946
0.017922
0.011887
0.009876
0.027981
0.060900
0.077908
0.065838
0.045903
0.036942
0.039868
0.048830
0.057974
0.059985
0.051939
0.045903
0.045903
0.050841
0.057974
0.062911
0.062911
0.056876
0.051939
0.057974
0.064009
0.064009
0.059985
0.057974
0.059985
0.061997
0.064009
0.067849
0.068947
0.064009
0.060900
0.064009
0.056876
0.027981
0.000914
-0.002012
0.007864
0.007864
0.011887
0.040966
0.076993
0.090892
0.084857
0.076993
0.069861
0.059985
0.055962
0.061997
0.068947
0.067849
0.066935
0.069861
0.069861
0.064009
0.062911
0.065838
0.064923
0.057974
0.054865
0.058888
0.062911
0.056876
0.039868
0.022860
0.023958
0.040966
0.045903
0.030907
0.022860
0.045903
0.064009
-0.029078
-0.357169
-0.873994
-1.226042
-1.034016
-0.390088
0.167886
0.280907
0.117959
0.009876
0.026884
0.048830
0.029993
0.017922
0.032004
0.044989
0.045903
0.048830
0.047001
0.026884
0.009876
0.026884
0.051939
0.047915
0.047001
0.090892
0.137893
0.126006
0.084857
0.077908
0.090892
0.088881
0.077908
0.077908
0.083943
0.080834
0.074982
0.067849
0.057974
0.055962
0.065838
0.072970
0.067849
0.060900
0.057974
0.054865
0.049927
0.051939
0.059985
0.060900
0.055962
0.056876
0.064923
0.065838
0.055962
0.048830
0.052853
0.064923
0.071873
0.068947
0.060900
0.056876
0.059985
0.064923
0.062911
0.059985
0.061997
0.066935
0.068947
0.065838
0.062911
0.060900
0.057974
0.057974
0.061997
0.066935
0.066935
0.064009
0.064009
0.061997
0.044989
0.015911
0.002926
0.018837
0.035845
0.028895
0.017008
0.028895
0.059985
0.079005
0.080834
0.076993
0.073884
0.069861
0.065838
0.066935
0.072970
0.076993
0.067849
0.055962
0.055962
0.066935
0.071873
0.064009
0.054865
0.053950
0.062911
0.067849
0.061997
0.050841
0.049927
0.056876
0.057974
0.050841
0.045903
0.044989
0.044989
0.047001
0.054865
0.059985
0.003841
-0.240124
-0.723116
-1.183065
-1.164045
-0.587052
0.065838
0.315837
0.208851
0.076993
0.062911
0.082846
0.065838
0.038954
0.035845
0.051939
0.065838
0.070958
0.074982
0.085955
0.096928
0.099854
0.098939
0.102963
0.111009
0.107900
0.098939
0.095830
0.099854
0.099854
0.094916
0.090892
0.089978
0.084857
0.076993
0.070958
0.072970
0.074982
0.074982
0.073884
0.074982
0.070958
0.064923
0.067849
0.079005
0.079005
0.060900
0.043892
0.045903
0.054865
0.053950
0.049927
0.056876
0.069861
0.069861
0.062911
0.060900
0.066935
0.067849
0.060900
0.042977
0.018837
0.009876
0.021946
0.026884
0.015911
0.027981
0.070958
0.102963
0.097842
0.081931
0.076993
0.077908
0.072970
0.056876
0.029993
0.005852
0.002012
0.024872
0.054865
0.065838
0.053950
0.048830
0.067849
0.094916
0.105889
0.095830
0.080834
0.073884
0.073884
0.076993
0.079920
0.083943
0.085955
0.082846
0.082846
0.086869
0.088881
0.082846
0.079005
0.080834
0.080834
0.073884
0.068947
0.074982
0.083943
0.084857
0.077908
0.072970
0.074982
0.075896
0.070958
0.068947
0.073884
0.030907
-0.193124
-0.655084
-1.113021
-1.137161
-0.608083
0.048830
0.337966
0.242868
0.095830
0.074982
0.105889
0.100951
0.072970
0.056876
0.060900
0.080834
0.099854
0.100951
0.091990
0.091990
0.104974
0.114850
0.116862
0.116862
0.118873
0.119971
0.117959
0.119971
0.127835
0.128932
0.115947
0.099854
0.097842
0.106986
0.111009
0.103877
0.094916
0.086869
0.079005
0.071873
0.077908
0.089978
0.094001
0.086869
0.079005
0.074982
0.067849
0.061997
0.074982
0.099854
0.109912
0.094916
0.079920
0.080834
0.088881
0.091990
0.091990
0.094001
0.094001
0.091990
0.088881
0.086869
0.084857
0.083943
0.084857
0.086869
0.087966
0.086869
0.085955
0.091990
0.101865
0.097842
0.080834
0.073884
0.074982
0.053950
0.019934
0.015911
0.049927
0.079005
0.073884
0.059985
0.069861
0.100951
0.122897
0.115947
0.096928
0.085955
0.088881
0.094916
0.098939
0.098939
0.095830
0.091990
0.090892
0.091990
0.090892
0.083943
0.075896
0.075896
0.081931
0.082846
0.076993
0.070958
0.074982
0.088881
0.089978
-0.016094
-0.356072
-0.870153
-1.189100
-0.957022
-0.311083
0.212875
0.303950
0.150878
0.060900
0.080834
0.100951
0.087966
0.073884
0.077908
0.089978
0.097842
0.096928
0.094001
0.098939
0.112838
0.122897
0.126006
0.124909
0.126920
0.137893
0.147952
0.141002
0.117959
0.104974
0.102963
0.091990
0.073884
0.074982
0.079920
0.062911
0.044989
0.064009
0.103877
0.122897
0.109912
0.085955
0.074982
0.080834
0.088881
0.084857
0.073884
0.074982
0.082846
0.090892
0.095830
0.099854
0.098939
0.089978
0.077908
0.071873
0.079005
0.091990
0.096928
0.092904
0.089978
0.091990
0.092904
0.090892
0.094916
0.100951
0.099854
0.091990
0.089978
0.097842
0.103877
0.101865
0.094001
0.087966
0.085955
0.088881
0.090892
0.091990
0.096928
0.101865
0.098939
0.091990
0.082846
0.060900
0.030907
0.026884
0.051939
0.058888
0.026884
0.006950
0.039868
0.089978
0.109912
0.102963
0.094001
0.082846
0.070958
0.073884
0.090892
0.095830
0.080834
0.065838
0.066935
0.075896
0.077908
0.072970
0.071873
0.072970
0.064009
0.048830
0.041880
0.041880
0.033833
0.027981
0.047915
0.067849
0.004938
-0.217081
-0.619056
-1.041148
-1.119056
-0.654170
0.005852
0.326993
0.238844
0.085955
0.058888
0.075896
0.064923
0.058888
0.070958
0.070958
0.055962
0.054865
0.072970
0.087966
0.089978
0.090892
0.096928
0.101865
0.105889
0.109912
0.108998
0.100951
0.091990
0.091990
0.099854
0.111924
0.112838
0.090892
0.058888
0.044989
0.053950
0.062911
0.060900
0.064009
0.073884
0.073884
0.064009
0.060900
0.067849
0.069861
0.059985
0.051939
0.050841
0.052853
0.057974
0.068947
0.082846
0.090892
0.090892
0.088881
0.090892
0.091990
0.086869
0.073884
0.064923
0.064923
0.066935
0.062911
0.060900
0.064923
0.066935
0.068947
0.076993
0.083943
0.076993
0.061997
0.061997
0.077908
0.089978
0.091990
0.080834
0.068947
0.067849
0.081931
0.088881
0.082846
0.079005
0.086869
0.095830
0.097842
0.089978
0.073884
0.054865
0.047001
0.054865
0.067849
0.071873
0.068947
0.072970
0.088881
0.106986
0.109912
0.100951
0.094916
0.099854
0.106986
0.100951
0.085955
0.077908
0.084857
0.089978
0.081931
0.062911
0.049927
0.055962
0.072970
0.081931
0.079005
0.075896
0.082846
0.088881
0.081931
0.068947
0.059985
0.054865
0.053950
0.057974
0.065838
0.056876
-0.047001
-0.372165
-0.873994
-1.172092
-0.897037
-0.225128
0.272860
0.324982
0.163862
0.079005
0.092904
0.107900
0.094916
0.079920
0.079005
0.088881
0.097842
0.097842
0.098939
0.109912
0.124909
0.131858
0.126006
0.115947
0.111009
0.118873
0.128932
0.131858
0.129846
0.128932
0.126006
0.115947
0.104974
0.097842
0.087966
0.079920
0.086869
0.100951
0.096928
0.079920
0.073884
0.083943
0.094916
0.094001
0.075896
0.051939
0.052853
0.086869
0.112838
0.097842
0.069861
0.066935
0.080834
0.089978
0.094916
0.098939
0.094916
0.084857
0.079005
0.077908
0.079920
0.086869
0.089978
0.079920
0.074982
0.092904
0.108998
0.095830
0.066935
0.058888
0.081931
0.105889
0.106986
0.096928
0.095830
0.088881
0.052853
0.012985
0.013899
0.049927
0.079920
0.095830
0.120885
0.142831
0.130944
0.102963
0.104974
0.131858
0.141917
0.123994
0.104974
0.104974
0.121982
0.139905
0.141002
0.123994
0.109912
0.107900
0.104974
0.092904
0.092904
0.112838
0.131858
0.133870
0.128932
0.120885
0.104974
0.103877
0.134967
0.117959
-0.089064
-0.533102
-1.018105
-1.162033
-0.748171
-0.051024
0.389905
0.383870
0.216898
0.155998
0.167886
0.153987
0.120885
0.098939
0.099854
0.139905
0.195867
0.211960
0.181968
0.156913
0.173921
0.203914
0.203914
0.182882
0.186906
0.220922
0.237930
0.215984
0.188003
0.181968
0.185991
0.192941
0.214887
0.244879
0.250914
0.221836
0.195867
0.206840
0.225859
0.216898
0.194952
0.194952
0.207937
0.205925
0.193855
0.182882
0.171909
0.175933
0.207937
0.229883
0.202999
0.164960
0.182882
0.228968
0.229883
0.194952
0.188003
0.202999
0.192941
0.171909
0.179956
0.218910
0.252926
0.250914
0.212875
0.163862
0.130944
0.107900
0.088881
0.076993
0.080834
0.102963
0.145940
0.190929
0.205011
0.180870
0.154901
0.167886
0.227871
0.280907
0.271946
0.218910
0.176847
0.151975
0.123994
0.117959
0.149963
0.178859
0.170995
0.152889
0.152889
0.165874
0.168983
0.146854
0.121982
0.121982
0.127835
0.100951
0.070958
0.101865
0.147952
0.076993
-0.164045
-0.531090
-0.932150
-1.141002
-0.878017
-0.234089
0.277981
0.344916
0.174835
0.082846
0.100951
0.121982
0.114850
0.102963
0.101865
0.115947
0.134967
0.148866
0.152889
0.136979
0.101865
0.082846
0.111924
0.166971
0.197879
0.193855
0.162948
0.118873
0.102963
0.135881
0.165874
0.160936
0.159839
0.167886
0.127835
0.064923
0.061997
0.115947
0.152889
0.158010
0.155998
0.141002
0.109912
0.094916
0.102963
0.108998
0.111924
0.130944
0.154901
0.158925
0.147952
0.128932
0.113936
0.121982
0.149963
0.150878
0.123994
0.120885
0.152889
0.170995
0.158925
0.142831
0.128932
0.101865
0.066935
0.047915
0.042977
0.039868
0.044989
0.071873
0.115947
0.149963
0.160936
0.152889
0.137893
0.130944
0.135881
0.143928
0.144843
0.143928
0.143928
0.132955
0.106986
0.084857
0.087966
0.113936
0.138990
0.143928
0.133870
0.120885
0.104974
0.088881
0.084857
0.094001
0.101865
0.107900
0.111924
0.081931
-0.034016
-0.320044
-0.821141
-1.287125
-1.235003
-0.576993
0.111924
0.302853
0.128932
-0.004023
0.000914
0.027981
0.037857
0.054865
0.062911
0.051939
0.037857
0.034930
0.051939
0.091990
0.131858
0.142831
0.128932
0.115947
0.107900
0.106986
0.118873
0.137893
0.151975
0.158010
0.156913
0.154901
0.152889
0.135881
0.096928
0.080834
0.113936
0.151975
0.142831
0.109912
0.102963
0.113936
0.113936
0.106986
0.106986
0.099854
0.079920
0.075896
0.097842
0.121982
0.127835
0.120885
0.106986
0.094916
0.096928
0.111924
0.112838
0.098939
0.102963
0.120885
0.118873
0.092904
0.068947
0.043892
0.005852
-0.020117
0.000914
0.058888
0.114850
0.134967
0.111924
0.076993
0.071873
0.101865
0.122897
0.111009
0.090892
0.091990
0.114850
0.127835
0.109912
0.069861
0.053950
0.082846
0.116862
0.113936
0.091990
0.087966
0.097842
0.096928
0.089978
0.088881
0.090892
0.084857
0.073884
0.060900
0.026884
-0.119056
-0.500000
-1.042063
-1.339063
-1.034016
-0.333028
0.174835
0.215984
0.047001
-0.037125
-0.021031
-0.002012
0.005852
0.019934
0.030907
0.041880
0.066935
0.095830
0.111009
0.115947
0.121982
0.124909
0.119971
0.117959
0.129846
0.150878
0.159839
0.153987
0.149963
0.154901
0.158010
0.151975
0.144843
0.135881
0.118873
0.104974
0.106986
0.113936
0.105889
0.091990
0.099854
0.119971
0.117959
0.101865
0.099854
0.107900
0.098939
0.079920
0.079920
0.097842
0.113936
0.132955
0.158010
0.162948
0.133870
0.109912
0.126920
0.158010
0.162948
0.145940
0.130944
0.119971
0.101865
0.065838
0.022860
0.021946
0.079005
0.137893
0.152889
0.155998
0.170995
0.166971
0.131858
0.118873
0.147952
0.171909
0.163862
0.158925
0.178859
0.195867
0.177944
0.144843
0.121982
0.113936
0.124909
0.158925
0.180870
0.156913
0.118873
0.123994
0.147952
0.131858
0.089978
0.087966
0.128932
0.142831
0.058888
-0.197147
-0.668069
-1.167154
-1.260058
-0.759144
-0.065106
0.255852
0.141917
-0.042063
-0.078091
-0.061083
-0.081017
-0.080102
-0.006035
0.079005
0.105889
0.088881
0.073884
0.059985
0.030907
0.024872
0.075896
0.137893
0.146854
0.109912
0.074982
0.064009
0.074982
0.099854
0.122897
0.131858
0.115947
0.070958
0.035845
0.058888
0.116862
0.127835
0.067849
0.010973
0.026884
0.079005
0.069861
-0.001097
-0.022129
0.037857
0.069861
0.037857
0.019934
0.038954
0.048830
0.059985
0.091990
0.104974
0.077908
0.032004
-0.016094
-0.024140
0.042977
0.120885
0.116862
0.047915
-0.011156
-0.057059
-0.107169
-0.117045
-0.054133
0.017922
0.024872
-0.010059
-0.007132
0.048830
0.098939
0.098939
0.062911
0.017008
-0.016094
-0.013168
0.017008
0.033833
0.019934
0.006950
0.023958
0.059985
0.079005
0.059985
0.019934
-0.009144
-0.010059
0.011887
0.034930
0.030907
0.005852
0.013899
0.059985
0.058888
-0.096013
-0.464155
-0.957022
-1.244147
-0.995062
-0.358998
0.127835
0.185991
0.029993
-0.065106
-0.071141
-0.063094
-0.042063
0.007864
0.065838
0.102963
0.113936
0.106986
0.097842
0.087966
0.084857
0.106986
0.141002
0.136979
0.095830
0.079005
0.106986
0.132955
0.129846
0.119971
0.126920
0.146854
0.159839
0.137893
0.085955
0.053950
0.075896
0.126006
0.146854
0.122897
0.094916
0.100951
0.115947
0.100951
0.070958
0.062911
0.070958
0.070958
0.059985
0.037857
0.013899
0.023958
0.085955
0.144843
0.128932
0.043892
-0.021031
0.006950
0.085955
0.111924
0.064009
0.020849
0.015911
-0.014996
-0.093087
-0.126006
-0.050110
0.061997
0.103877
0.066935
0.011887
-0.017008
-0.013168
0.013899
0.035845
0.038954
0.049927
0.076993
0.058888
-0.036028
-0.108998
-0.061083
0.052853
0.103877
0.067849
0.022860
0.010973
0.011887
0.008961
0.004938
-0.009144
-0.032004
-0.038039
-0.006035
0.035845
0.027981
-0.113021
-0.474031
-1.001097
-1.360095
-1.181053
-0.544989
0.029993
0.168983
0.010973
-0.114118
-0.110095
-0.088149
-0.108083
-0.118142
-0.090161
-0.057059
-0.043160
-0.027067
0.002012
0.025969
0.036942
0.037857
0.030907
0.023958
0.041880
0.079005
0.090892
0.075896
0.079920
0.100951
0.091990
0.058888
0.050841
0.051939
0.014996
-0.029993
-0.010059
0.066935
0.122897
0.127835
0.106986
0.066935
0.015911
-0.003109
0.023958
0.052853
0.049927
0.036942
0.038954
0.051939
0.067849
0.083943
0.081931
0.055962
0.033833
0.043892
0.058888
0.047001
0.030907
0.050841
0.082846
0.075896
0.028895
-0.009144
-0.013168
0.005852
0.034930
0.066935
0.090892
0.094916
0.090892
0.089978
0.089978
0.083943
0.082846
0.091990
0.090892
0.070958
0.067849
0.099854
0.124909
0.114850
0.098939
0.108998
0.121982
0.120885
0.114850
0.107900
0.091990
0.076993
0.080834
0.096928
0.102963
0.098939
0.115947
0.138990
0.070958
-0.199159
-0.668069
-1.116130
-1.192026
-0.750000
-0.111009
0.240856
0.198976
0.049927
0.002012
0.004938
-0.013168
-0.020117
0.010973
0.043892
0.049927
0.052853
0.085955
0.138990
0.164960
0.142831
0.098939
0.084857
0.122897
0.171909
0.171909
0.126920
0.101865
0.117959
0.122897
0.087966
0.064009
0.081931
0.097842
0.088881
0.088881
0.088881
0.033833
-0.035113
-0.029078
0.034930
0.082846
0.097842
0.089978
0.057974
0.037857
0.060900
0.070958
0.026884
-0.002012
0.041880
0.094916
0.080834
0.043892
0.055962
0.083943
0.062911
0.036942
0.087966
0.174835
0.188917
0.121982
0.055962
0.030907
0.045903
0.094001
0.151975
0.184894
0.184894
0.152889
0.096928
0.068947
0.098939
0.144843
0.162948
0.161851
0.148866
0.124909
0.109912
0.107900
0.106986
0.117959
0.142831
0.144843
0.118873
0.111009
0.128932
0.135881
0.121982
0.112838
0.108998
0.098939
0.084857
0.083943
0.086869
0.036942
-0.185077
-0.652158
-1.170080
-1.309071
-0.871068
-0.211046
0.137893
0.061997
-0.136064
-0.212143
-0.192026
-0.170080
-0.150146
-0.105157
-0.052121
-0.029078
-0.028164
-0.019020
0.002012
0.010973
0.006950
0.012985
0.039868
0.059985
0.051939
0.028895
0.017008
0.014996
0.008961
0.000914
0.004938
0.020849
0.028895
0.020849
0.006950
0.002012
0.015911
0.029993
0.009876
-0.037125
-0.052121
-0.017008
0.009876
0.000914
-0.012070
-0.008047
-0.006035
-0.013168
-0.010059
-0.002012
-0.007132
-0.022129
-0.033102
-0.036028
-0.034016
-0.028164
-0.026152
-0.037125
-0.047001
-0.038039
-0.029078
-0.057059
-0.119056
-0.159107
-0.141002
-0.089064
-0.044989
-0.024140
-0.024140
-0.034016
-0.041148
-0.037125
-0.041148
-0.060168
-0.072056
-0.056145
-0.033102
-0.032004
-0.054133
-0.085040
-0.116130
-0.123080
-0.093087
-0.055048
-0.047001
-0.060168
-0.056145
-0.036028
-0.033102
-0.052121
-0.066020
-0.065106
-0.060168
-0.056145
-0.073153
-0.207023
-0.582114
-1.125091
-1.454096
-1.202084
-0.511156
0.038954
0.097842
-0.117045
-0.242136
-0.222019
-0.183065
-0.161119
-0.125091
-0.093087
-0.093087
-0.105157
-0.095099
-0.061997
-0.033102
-0.029993
-0.043160
-0.042063
-0.022129
-0.011156
-0.020117
-0.026152
-0.016094
-0.010059
-0.016094
-0.017008
-0.009144
-0.005121
-0.014996
-0.028164
-0.031090
-0.022129
-0.013168
-0.012070
-0.019020
-0.023043
-0.010059
0.004938
-0.007132
-0.040051
-0.049012
-0.021031
0.002012
0.000914
-0.001097
0.003841
-0.005121
-0.024140
-0.032004
-0.026152
-0.020117
-0.014082
-0.008047
-0.009144
-0.022129
-0.035113
-0.051024
-0.076993
-0.108998
-0.128018
-0.121068
-0.091075
-0.057059
-0.039137
-0.035113
-0.029078
-0.018105
-0.017008
-0.021031
-0.022129
-0.023043
-0.032004
-0.049012
-0.070044
-0.088149
-0.087052
-0.074067
-0.080102
-0.103146
-0.100037
-0.050110
0.002012
0.008961
-0.023043
-0.050110
-0.050110
-0.044989
-0.050110
-0.048098
-0.032004
-0.060168
-0.223116
-0.590161
-1.091989
-1.388076
-1.108083
-0.396123
0.131858
0.138990
-0.089064
-0.188003
-0.153072
-0.127103
-0.131127
-0.116130
-0.091075
-0.094001
-0.110095
-0.091990
-0.044989
-0.020117
-0.023043
-0.020117
-0.007132
-0.010059
-0.025055
-0.018105
0.013899
0.040966
0.043892
0.030907
0.011887
-0.012070
-0.028164
-0.021031
-0.014996
-0.040051
-0.065106
-0.036028
0.020849
0.034930
0.000000
-0.018105
0.011887
0.047001
0.038954
-0.001097
-0.026152
-0.017008
0.000000
0.002926
0.002012
0.005852
0.000000
-0.017008
-0.016094
0.007864
0.021946
0.017008
0.018837
0.024872
0.012985
-0.011156
-0.029993
-0.052121
-0.082114
-0.089064
-0.044989
0.019934
0.050841
0.027981
0.002012
0.009876
0.023958
0.008961
-0.009144
0.009876
0.042977
0.043892
0.011887
-0.012070
0.000000
0.024872
0.025969
0.007864
0.004938
0.014996
0.008961
-0.007132
-0.004023
0.012985
0.015911
0.002012
-0.003109
0.006950
0.008961
-0.017008
-0.128018
-0.443123
-0.949158
-1.292063
-1.080102
-0.435991
0.079920
0.162948
0.019934
-0.063094
-0.053036
-0.038039
-0.037125
-0.032004
-0.022129
-0.013168
-0.001097
0.004938
0.003841
0.008961
0.027981
0.043892
0.042977
0.043892
0.055962
0.066935
0.065838
0.067849
0.071873
0.064009
0.047915
0.039868
0.039868
0.032919
0.021946
0.017922
0.022860
0.027981
0.032919
0.038954
0.036942
0.020849
0.005852
0.004938
0.012985
0.012985
0.002926
-0.009144
-0.009144
0.006950
0.027981
0.028895
0.002926
-0.023043
-0.022129
0.000914
0.015911
0.010973
0.000914
-0.002012
-0.008047
-0.028164
-0.059071
-0.088149
-0.102048
-0.089064
-0.051024
-0.016094
-0.001097
0.000000
0.002926
0.005852
-0.001097
-0.016094
-0.021031
-0.011156
-0.006035
-0.018105
-0.023043
0.000914
0.030907
0.032919
0.012985
0.003841
0.007864
0.002012
-0.023043
-0.044075
-0.039137
-0.016094
-0.012070
-0.041148
-0.072056
-0.070044
-0.049012
-0.069129
-0.257132
-0.717995
-1.240124
-1.302121
-0.719093
-0.019020
0.208851
0.039868
-0.098025
-0.076993
-0.050110
-0.076079
-0.076079
-0.038039
-0.027067
-0.049012
-0.049012
-0.011156
0.017922
0.015911
0.012985
0.027981
0.044989
0.048830
0.049927
0.055962
0.065838
0.073884
0.062911
0.036942
0.024872
0.043892
0.065838
0.058888
0.043892
0.048830
0.066935
0.069861
0.052853
0.034930
0.029993
0.034930
0.030907
0.017922
0.015911
0.032919
0.048830
0.047001
0.039868
0.038954
0.039868
0.038954
0.039868
0.040966
0.040966
0.041880
0.045903
0.041880
0.027981
0.015911
0.006950
-0.016094
-0.053036
-0.079005
-0.073153
-0.042063
-0.006035
0.023958
0.039868
0.034930
0.021946
0.019934
0.030907
0.033833
0.025969
0.026884
0.041880
0.047915
0.032919
0.012985
0.010973
0.022860
0.026884
0.015911
0.008961
0.012985
0.012985
-0.003109
-0.017008
-0.007132
0.004938
-0.001097
-0.001097
0.015911
-0.031090
-0.256035
-0.682150
-1.116130
-1.198061
-0.754023
-0.121068
0.193855
0.118873
-0.025055
-0.056145
-0.046086
-0.053036
-0.051024
-0.039137
-0.032004
-0.019020
0.005852
0.022860
0.022860
0.018837
0.021946
0.028895
0.033833
0.030907
0.019934
0.014996
0.027981
0.049927
0.049927
0.028895
0.014996
0.019934
0.023958
0.011887
0.000914
0.002926
0.011887
0.012985
0.005852
0.002926
0.006950
0.006950
-0.002012
-0.009144
-0.003109
0.004938
-0.001097
-0.011156
-0.008047
0.005852
0.009876
0.004938
0.000914
-0.004023
-0.017008
-0.029078
-0.024140
-0.013168
-0.020117
-0.050110
-0.074067
-0.081017
-0.097110
-0.123994
-0.117045
-0.054133
0.003841
0.000000
-0.034016
-0.028164
0.004938
0.010973
-0.011156
-0.024140
-0.020117
-0.010059
0.002012
0.006950
0.000000
-0.008047
-0.005121
-0.002012
-0.006035
-0.011156
-0.011156
-0.007132
-0.002012
-0.001097
-0.005121
-0.019020
-0.038039
-0.051024
-0.040051
-0.012070
-0.050110
-0.298098
-0.782004
-1.223116
-1.204096
-0.653072
-0.026152
0.194952
0.038954
-0.122165
-0.116130
-0.055048
-0.044075
-0.059071
-0.063094
-0.057059
-0.046086
-0.032004
-0.014082
0.002926
0.009876
0.009876
0.022860
0.039868
0.035845
0.019934
0.029993
0.061997
0.077908
0.069861
0.059985
0.054865
0.043892
0.035845
0.036942
0.038954
0.037857
0.038954
0.036942
0.034930
0.034930
0.029993
0.019934
0.023958
0.043892
0.052853
0.044989
0.036942
0.035845
0.033833
0.033833
0.040966
0.042977
0.032004
0.018837
0.013899
0.011887
0.012985
0.023958
0.034930
0.029993
0.006950
-0.022129
-0.048098
-0.061083
-0.054133
-0.032004
0.000914
0.038954
0.058888
0.043892
0.018837
0.017922
0.043892
0.057974
0.036942
0.005852
0.006950
0.037857
0.055962
0.039868
0.023958
0.034930
0.051939
0.040966
0.014996
0.014996
0.039868
0.043892
0.000000
-0.047001
-0.024140
0.059985
0.099854
0.048830
-0.052121
-0.243050
-0.647037
-1.146123
-1.285113
-0.796086
-0.052121
0.307974
0.163862
-0.052121
-0.058157
-0.002012
-0.025055
-0.044989
-0.004023
0.050841
0.080834
0.057974
-0.012070
-0.009144
0.097842
0.135881
0.026884
-0.035113
0.079920
0.200988
0.163862
0.071873
0.075896
0.126006
0.104974
0.049927
0.064009
0.124909
0.138990
0.098939
0.085955
0.113936
0.121982
0.094001
0.091990
0.136979
0.153987
0.091990
0.022860
0.036942
0.106986
0.145940
0.141917
0.126006
0.094916
0.059985
0.074982
0.126006
0.134967
0.081931
0.032919
0.036942
0.087966
0.141002
0.143928
0.095830
0.051939
0.025969
-0.012070
-0.043160
-0.014996
0.061997
0.119971
0.133870
0.133870
0.136979
0.130944
0.116862
0.116862
0.127835
0.119971
0.086869
0.070958
0.096928
0.126920
0.120885
0.087966
0.074982
0.112838
0.171909
0.185991
0.138990
0.087966
0.080834
0.098939
0.106986
0.113936
0.124909
0.113936
0.065838
-0.082114
-0.458120
-0.966166
-1.157095
-0.737015
-0.053036
0.304865
0.217996
0.017008
-0.039137
-0.007132
-0.029078
-0.083029
-0.063094
0.008961
0.020849
-0.010059
0.026884
0.119971
0.156913
0.118873
0.084857
0.077908
0.047001
-0.005121
-0.004023
0.064923
0.117959
0.099854
0.068947
0.081931
0.109912
0.102963
0.077908
0.066935
0.064009
0.045903
0.014996
-0.006035
0.000914
0.018837
0.017922
0.004938
0.008961
0.028895
0.033833
0.017922
-0.004023
-0.021031
-0.037125
-0.046086
-0.034016
-0.001097
0.023958
0.013899
-0.014082
-0.018105
0.002926
0.002012
-0.038039
-0.072056
-0.073153
-0.070044
-0.084126
-0.095099
-0.081017
-0.038039
0.017008
0.054865
0.052853
0.028895
0.000914
-0.036028
-0.073153
-0.082114
-0.060168
-0.031090
-0.007132
0.019934
0.037857
0.028895
0.002926
-0.020117
-0.041148
-0.060168
-0.058157
-0.032004
-0.004023
0.010973
0.010973
-0.014996
-0.048098
-0.036028
0.002012
-0.036028
-0.224031
-0.569129
-1.003109
-1.260058
-1.014996
-0.371068
0.129846
0.168983
-0.020117
-0.103146
-0.065106
-0.044989
-0.065106
-0.063094
-0.032004
-0.023043
-0.037125
-0.034016
-0.013168
-0.002012
-0.004023
-0.005121
-0.009144
-0.023043
-0.031090
-0.029078
-0.034016
-0.044989
-0.034016
0.008961
0.050841
0.048830
0.005852
-0.039137
-0.063094
-0.066020
-0.049012
-0.029078
-0.025055
-0.006035
0.087966
0.236832
0.344916
0.359912
0.324982
0.288954
0.252926
0.213972
0.193855
0.199890
0.203914
0.192941
0.192941
0.220922
0.240856
0.222933
0.196964
0.207937
0.235004
0.220922
0.165874
0.123994
0.112838
0.101865
0.092904
0.121982
0.184894
0.224945
0.214887
0.182882
0.161851
0.153987
0.142831
0.128932
0.126006
0.137893
0.153987
0.160936
0.154901
0.147952
0.142831
0.138990
0.135881
0.135881
0.131858
0.126920
0.124909
0.123994
0.106986
0.079920
0.075896
0.111924
0.145940
0.127835
0.055962
-0.085040
-0.388990
-0.834126
-1.083028
-0.806145
-0.187088
0.247988
0.289868
0.177944
0.135881
0.137893
0.106986
0.064923
0.057974
0.070958
0.072970
0.056876
0.035845
0.015911
0.009876
0.030907
0.055962
0.044989
0.004938
-0.006035
0.022860
0.036942
0.005852
-0.019020
-0.002012
0.021946
0.017008
0.002926
0.000914
0.002012
0.002012
0.006950
0.004938
-0.021031
-0.050110
-0.046086
-0.020117
-0.010059
-0.028164
-0.044989
-0.047001
-0.040051
-0.034016
-0.031090
-0.037125
-0.057059
-0.070044
-0.060168
-0.052121
-0.066020
-0.075165
-0.055048
-0.038039
-0.053036
-0.067118
-0.051024
-0.043160
-0.084126
-0.143014
-0.166057
-0.136064
-0.083029
-0.053036
-0.064009
-0.078091
-0.050110
-0.003109
-0.003109
-0.048098
-0.071141
-0.046086
-0.017008
-0.028164
-0.063094
-0.070044
-0.035113
-0.014996
-0.044989
-0.074067
-0.052121
-0.019020
-0.016094
-0.019020
-0.003109
0.010973
0.000914
-0.017008
-0.024140
-0.031090
-0.068032
-0.161119
-0.360095
-0.673006
-0.890088
-0.692026
-0.115033
0.355889
0.391916
0.185991
0.077908
0.126006
0.188917
0.181968
0.136979
0.122897
0.153987
0.183979
0.184894
0.178859
0.189832
0.203914
0.200988
0.184894
0.180870
0.195867
0.209949
0.201902
0.180870
0.167886
0.166971
0.169898
0.173921
0.179956
0.181968
0.174835
0.160936
0.148866
0.142831
0.145940
0.151975
0.154901
0.155998
0.155998
0.143928
0.116862
0.102963
0.122897
0.152889
0.159839
0.146854
0.133870
0.127835
0.126006
0.128932
0.136979
0.141002
0.126920
0.101865
0.086869
0.087966
0.088881
0.079920
0.058888
0.019934
-0.020117
-0.020117
0.026884
0.076993
0.086869
0.069861
0.054865
0.047001
0.041880
0.041880
0.054865
0.070958
0.079005
0.075896
0.071873
0.070958
0.068947
0.054865
0.035845
0.025969
0.021946
0.011887
0.003841
0.013899
0.032004
0.030907
0.011887
0.005852
0.027981
0.047001
0.030907
-0.051024
-0.281090
-0.710131
-1.121068
-1.107169
-0.590161
-0.008047
0.210863
0.119971
0.011887
-0.010059
-0.025055
-0.060168
-0.076993
-0.072056
-0.069129
-0.055048
-0.008047
0.040966
0.043892
0.012985
-0.003109
0.005852
0.013899
0.014996
0.020849
0.032004
0.034930
0.028895
0.025969
0.033833
0.044989
0.044989
0.036942
0.032004
0.025969
0.007864
-0.010059
-0.011156
-0.008047
-0.016094
-0.022129
-0.013168
-0.006035
-0.011156
-0.008047
0.005852
0.005852
-0.009144
-0.014082
-0.005121
0.003841
0.002926
-0.002012
-0.004023
0.000914
0.007864
0.005852
-0.010059
-0.036028
-0.058157
-0.057059
-0.039137
-0.023043
-0.008047
0.036942
0.111009
0.163862
0.158010
0.118873
0.099854
0.111009
0.126920
0.131858
0.133870
0.136979
0.128932
0.103877
0.092904
0.113936
0.131858
0.116862
0.098939
0.107900
0.109912
0.080834
0.050841
0.053950
0.084857
0.116862
0.123994
0.103877
0.085955
0.091990
0.088881
-0.007132
-0.283102
-0.711046
-1.031090
-0.920995
-0.393014
0.127835
0.289868
0.188917
0.107900
0.116862
0.117959
0.080834
0.043892
0.032004
0.039868
0.057974
0.075896
0.088881
0.090892
0.084857
0.089978
0.108998
0.118873
0.113936
0.108998
0.109912
0.115947
0.122897
0.116862
0.098939
0.098939
0.117959
0.117959
0.098939
0.094001
0.099854
0.089978
0.077908
0.085955
0.099854
0.092904
0.074982
0.066935
0.064923
0.056876
0.045903
0.041880
0.049927
0.061997
0.064923
0.054865
0.049927
0.059985
0.072970
0.075896
0.066935
0.050841
0.038954
0.037857
0.034930
0.017008
0.006950
0.015911
0.006950
-0.040051
-0.071141
-0.037125
0.022860
0.040966
0.018837
0.015911
0.051939
0.077908
0.059985
0.026884
0.029993
0.061997
0.072970
0.048830
0.027981
0.035845
0.056876
0.072970
0.070958
0.040966
0.002012
-0.004023
0.027981
0.057974
0.061997
0.051939
0.045903
0.042977
0.032004
0.015911
0.017008
0.014996
-0.111009
-0.473116
-0.917154
-1.044074
-0.652158
-0.044075
0.300841
0.278895
0.151975
0.114850
0.126920
0.113936
0.085955
0.070958
0.071873
0.083943
0.096928
0.094001
0.082846
0.086869
0.113936
0.139905
0.135881
0.101865
0.074982
0.082846
0.113936
0.134967
0.135881
0.123994
0.111009
0.104974
0.105889
0.106986
0.100951
0.094916
0.097842
0.100951
0.090892
0.072970
0.068947
0.083943
0.097842
0.095830
0.087966
0.083943
0.075896
0.064009
0.064009
0.077908
0.084857
0.073884
0.065838
0.075896
0.088881
0.084857
0.076993
0.080834
0.088881
0.082846
0.064009
0.049927
0.041880
0.024872
0.000914
-0.010059
0.005852
0.047001
0.091990
0.120885
0.124909
0.107900
0.084857
0.073884
0.083943
0.101865
0.107900
0.099854
0.094001
0.096928
0.101865
0.097842
0.088881
0.086869
0.090892
0.097842
0.108998
0.117959
0.111924
0.089978
0.069861
0.072970
0.087966
0.095830
0.099854
0.094916
0.012985
-0.232077
-0.623994
-0.952085
-0.922092
-0.477140
0.050841
0.283833
0.215984
0.105889
0.086869
0.109912
0.124909
0.122897
0.088881
0.045903
0.047001
0.095830
0.135881
0.126006
0.086869
0.065838
0.080834
0.109912
0.130944
0.132955
0.118873
0.100951
0.097842
0.107900
0.117959
0.130944
0.149963
0.156913
0.128932
0.080834
0.058888
0.069861
0.080834
0.081931
0.086869
0.095830
0.092904
0.085955
0.094001
0.098939
0.077908
0.052853
0.061997
0.092904
0.107900
0.102963
0.094916
0.083943
0.075896
0.084857
0.101865
0.101865
0.086869
0.079005
0.075896
0.065838
0.051939
0.033833
-0.004023
-0.028164
0.015911
0.111924
0.173921
0.169898
0.139905
0.117959
0.094916
0.071873
0.072970
0.101865
0.131858
0.137893
0.123994
0.107900
0.105889
0.114850
0.116862
0.102963
0.087966
0.094916
0.119971
0.137893
0.133870
0.111924
0.080834
0.045903
0.037857
0.077908
0.120885
0.082846
-0.088149
-0.424104
-0.887161
-1.202084
-0.999085
-0.331017
0.253840
0.361009
0.163862
0.029993
0.047915
0.088881
0.075896
0.051939
0.058888
0.081931
0.092904
0.100951
0.115947
0.126006
0.118873
0.118873
0.134967
0.128932
0.083943
0.054865
0.092904
0.158925
0.173921
0.133870
0.103877
0.106986
0.105889
0.083943
0.071873
0.084857
0.090892
0.068947
0.047001
0.053950
0.075896
0.087966
0.079005
0.052853
0.035845
0.045903
0.064009
0.066935
0.062911
0.067849
0.064009
0.045903
0.030907
0.028895
0.028895
0.033833
0.054865
0.082846
0.088881
0.052853
0.004938
-0.011156
0.000000
-0.010059
-0.047001
-0.049012
0.010973
0.066935
0.062911
0.032004
0.033833
0.064923
0.077908
0.058888
0.037857
0.028895
0.025969
0.028895
0.042977
0.058888
0.072970
0.076993
0.050841
0.000914
-0.020117
0.019934
0.066935
0.062911
0.024872
0.008961
0.012985
-0.008047
-0.049012
-0.051024
-0.012070
-0.069129
-0.379115
-0.881126
-1.219093
-1.038039
-0.424104
0.126920
0.260973
0.105889
-0.023043
-0.027067
0.002926
0.002926
-0.016094
-0.019020
0.010973
0.050841
0.065838
0.055962
0.038954
0.022860
0.012985
0.021946
0.039868
0.052853
0.057974
0.054865
0.054865
0.068947
0.087966
0.082846
0.048830
0.017008
0.014996
0.038954
0.064009
0.069861
0.054865
0.039868
0.041880
0.057974
0.065838
0.051939
0.015911
-0.021031
-0.025055
0.014996
0.061997
0.075896
0.066935
0.058888
0.051939
0.045903
0.047915
0.047001
0.032919
0.021946
0.030907
0.041880
0.036942
0.017922
-0.013168
-0.054133
-0.069129
-0.026152
0.040966
0.070958
0.059985
0.050841
0.064923
0.079920
0.069861
0.043892
0.038954
0.064923
0.080834
0.053950
0.017008
0.018837
0.053950
0.082846
0.085955
0.071873
0.057974
0.054865
0.064009
0.074982
0.064923
0.028895
0.002926
0.026884
0.072970
0.086869
0.057974
-0.023043
-0.260058
-0.717081
-1.159107
-1.161119
-0.630029
0.000914
0.268837
0.188003
0.065838
0.054865
0.079920
0.067849
0.042977
0.041880
0.058888
0.069861
0.069861
0.067849
0.064923
0.057974
0.058888
0.084857
0.121982
0.139905
0.129846
0.115947
0.108998
0.104974
0.101865
0.102963
0.097842
0.082846
0.073884
0.079005
0.085955
0.086869
0.087966
0.087966
0.081931
0.075896
0.076993
0.073884
0.059985
0.051939
0.064923
0.083943
0.085955
0.072970
0.062911
0.066935
0.079920
0.088881
0.084857
0.067849
0.058888
0.067849
0.082846
0.071873
0.025969
-0.020117
-0.031090
-0.023043
-0.019020
-0.007132
0.025969
0.062911
0.084857
0.092904
0.079920
0.048830
0.027981
0.036942
0.052853
0.062911
0.077908
0.101865
0.113936
0.098939
0.069861
0.035845
0.007864
0.015911
0.061997
0.099854
0.095830
0.071873
0.057974
0.047915
0.025969
0.005852
0.009876
0.017922
-0.014082
-0.126006
-0.388990
-0.828090
-1.195135
-1.071141
-0.446050
0.133870
0.246891
0.062911
-0.063094
-0.058157
-0.029078
-0.014996
-0.004023
0.008961
0.025969
0.037857
0.026884
0.009876
0.023958
0.057974
0.068947
0.050841
0.034930
0.036942
0.044989
0.044989
0.040966
0.041880
0.043892
0.027981
0.004938
0.008961
0.036942
0.054865
0.059985
0.062911
0.060900
0.049927
0.043892
0.045903
0.048830
0.052853
0.054865
0.047915
0.039868
0.043892
0.048830
0.043892
0.039868
0.048830
0.060900
0.057974
0.034930
0.011887
0.012985
0.040966
0.061997
0.035845
-0.016094
-0.044989
-0.041148
-0.049012
-0.074067
-0.064009
0.004938
0.076993
0.094916
0.075896
0.062911
0.054865
0.019934
-0.029993
-0.053036
-0.029078
0.024872
0.079920
0.107900
0.092904
0.058888
0.037857
0.037857
0.041880
0.039868
0.036942
0.038954
0.041880
0.030907
0.005852
-0.001097
0.028895
0.049927
-0.016094
-0.217081
-0.581017
-1.026152
-1.224030
-0.877103
-0.208120
0.220922
0.210863
0.052853
-0.001097
0.009876
-0.002012
-0.014082
0.002012
0.015911
0.003841
-0.005121
0.009876
0.032004
0.047001
0.056876
0.058888
0.042977
0.017008
-0.002012
-0.006035
0.019934
0.071873
0.097842
0.067849
0.027981
0.032004
0.061997
0.067849
0.040966
0.000914
-0.028164
-0.027067
0.011887
0.060900
0.081931
0.065838
0.035845
0.012985
0.005852
0.019934
0.045903
0.062911
0.068947
0.077908
0.086869
0.077908
0.049927
0.030907
0.032004
0.038954
0.044989
0.052853
0.059985
0.054865
0.033833
0.002926
-0.028164
-0.029993
0.012985
0.064923
0.081931
0.079005
0.079920
0.073884
0.061997
0.073884
0.095830
0.083943
0.050841
0.045903
0.061997
0.064923
0.064009
0.077908
0.080834
0.054865
0.035845
0.056876
0.094001
0.111009
0.107900
0.098939
0.079005
0.044989
0.017922
0.020849
0.039868
0.032004
-0.049012
-0.287125
-0.728054
-1.144111
-1.101134
-0.519020
0.103877
0.304865
0.170995
0.044989
0.038954
0.069861
0.083943
0.080834
0.067849
0.061997
0.071873
0.085955
0.085955
0.077908
0.086869
0.114850
0.139905
0.139905
0.122897
0.120885
0.128932
0.113936
0.088881
0.094001
0.126920
0.141002
0.129846
0.122897
0.117959
0.098939
0.071873
0.057974
0.061997
0.069861
0.077908
0.091990
0.100951
0.079005
0.041880
0.034930
0.056876
0.065838
0.055962
0.056876
0.065838
0.064009
0.060900
0.067849
0.070958
0.058888
0.055962
0.071873
0.082846
0.079005
0.074982
0.073884
0.050841
0.000914
-0.043160
-0.051024
-0.020117
0.034930
0.088881
0.113936
0.107900
0.092904
0.081931
0.067849
0.060900
0.073884
0.085955
0.069861
0.047915
0.056876
0.072970
0.047001
0.008961
0.023958
0.079005
0.109912
0.099854
0.070958
0.043892
0.037857
0.060900
0.083943
0.079005
0.064923
0.069861
0.079005
0.047915
-0.093087
-0.410022
-0.847110
-1.135150
-0.990124
-0.475128
0.015911
0.193855
0.134967
0.048830
0.010973
0.002926
0.020849
0.052853
0.065838
0.056876
0.047001
0.043892
0.047001
0.056876
0.060900
0.043892
0.017922
0.009876
0.037857
0.094001
0.145940
0.154901
0.116862
0.081931
0.080834
0.086869
0.069861
0.056876
0.079005
0.106986
0.097842
0.075896
0.083943
0.102963
0.088881
0.057974
0.054865
0.079005
0.091990
0.081931
0.072970
0.080834
0.091990
0.091990
0.083943
0.075896
0.062911
0.049927
0.056876
0.079920
0.085955
0.064923
0.048830
0.056876
0.059985
0.034930
0.002012
-0.010059
-0.009144
-0.018105
-0.018105
0.022860
0.089978
0.126920
0.114850
0.084857
0.062911
0.053950
0.059985
0.082846
0.098939
0.095830
0.092904
0.109912
0.124909
0.113936
0.091990
0.075896
0.067849
0.069861
0.082846
0.090892
0.079005
0.071873
0.079920
0.068947
0.032919
0.027981
0.066935
0.052853
-0.126006
-0.516093
-0.967995
-1.108083
-0.708120
-0.080102
0.250914
0.196964
0.067849
0.036942
0.036942
0.030907
0.049927
0.074982
0.069861
0.051939
0.037857
0.028895
0.044989
0.091990
0.116862
0.088881
0.052853
0.052853
0.072970
0.089978
0.113936
0.139905
0.135881
0.102963
0.079920
0.082846
0.081931
0.070958
0.081931
0.111924
0.111009
0.077908
0.066935
0.091990
0.106986
0.096928
0.094916
0.104974
0.096928
0.066935
0.043892
0.044989
0.068947
0.095830
0.111924
0.112838
0.107900
0.100951
0.094001
0.092904
0.095830
0.081931
0.041880
0.004938
-0.001097
0.009876
0.011887
-0.008047
-0.046086
-0.073153
-0.048098
0.025969
0.082846
0.079005
0.053950
0.056876
0.069861
0.054865
0.033833
0.048830
0.075896
0.074982
0.057974
0.057974
0.064009
0.056876
0.048830
0.054865
0.062911
0.062911
0.056876
0.044989
0.034930
0.034930
0.042977
0.058888
0.067849
0.002012
-0.232992
-0.642099
-1.040051
-1.108083
-0.685991
-0.067118
0.253840
0.160936
-0.034016
-0.091075
-0.056145
-0.025055
-0.006035
0.005852
0.009876
0.020849
0.043892
0.051939
0.041880
0.047001
0.076993
0.092904
0.068947
0.035845
0.034930
0.054865
0.064923
0.060900
0.060900
0.069861
0.079005
0.079005
0.069861
0.055962
0.048830
0.053950
0.064009
0.066935
0.054865
0.036942
0.024872
0.027981
0.032004
0.020849
0.010973
0.024872
0.052853
0.069861
0.072970
0.069861
0.053950
0.032919
0.034930
0.057974
0.069861
0.060900
0.051939
0.044989
0.033833
0.032004
0.044989
0.049927
0.030907
0.006950
-0.010059
-0.032004
-0.046086
-0.020117
0.041880
0.075896
0.049927
0.002012
-0.010059
0.015911
0.048830
0.064009
0.064009
0.058888
0.052853
0.051939
0.055962
0.057974
0.055962
0.044989
0.029993
0.033833
0.057974
0.072970
0.060900
0.044989
0.043892
0.045903
0.047915
0.051939
0.025969
-0.133138
-0.514996
-0.999085
-1.193123
-0.834126
-0.177030
0.243965
0.237930
0.057974
-0.033102
-0.024140
-0.008047
-0.002012
0.012985
0.027981
0.030907
0.029993
0.030907
0.032004
0.032004
0.027981
0.017008
0.012985
0.032919
0.059985
0.066935
0.064009
0.069861
0.076993
0.067849
0.054865
0.056876
0.066935
0.067849
0.054865
0.035845
0.026884
0.032919
0.040966
0.045903
0.051939
0.057974
0.057974
0.053950
0.052853
0.054865
0.050841
0.042977
0.042977
0.051939
0.054865
0.045903
0.039868
0.049927
0.064923
0.065838
0.056876
0.060900
0.074982
0.077908
0.064009
0.044989
0.026884
0.009876
-0.005121
-0.025055
-0.036028
-0.004023
0.061997
0.101865
0.089978
0.064009
0.057974
0.059985
0.057974
0.062911
0.076993
0.080834
0.067849
0.058888
0.066935
0.081931
0.086869
0.079005
0.065838
0.058888
0.058888
0.058888
0.059985
0.068947
0.073884
0.051939
0.033833
0.057974
0.085955
0.019934
-0.215069
-0.634052
-1.076079
-1.161119
-0.681053
-0.005121
0.308888
0.200988
0.044989
0.039868
0.072970
0.051939
0.035845
0.065838
0.086869
0.066935
0.041880
0.052853
0.076993
0.083943
0.077908
0.080834
0.094916
0.113936
0.129846
0.134967
0.126920
0.106986
0.081931
0.072970
0.094001
0.122897
0.128932
0.116862
0.109912
0.109912
0.098939
0.079005
0.070958
0.077908
0.080834
0.071873
0.059985
0.055962
0.060900
0.069861
0.079920
0.088881
0.091990
0.085955
0.076993
0.079005
0.088881
0.088881
0.079005
0.073884
0.076993
0.080834
0.079005
0.072970
0.065838
0.059985
0.050841
0.033833
0.004938
-0.017008
-0.008047
0.039868
0.089978
0.103877
0.087966
0.074982
0.074982
0.072970
0.070958
0.085955
0.106986
0.106986
0.084857
0.067849
0.069861
0.079005
0.079920
0.076993
0.080834
0.086869
0.086869
0.079005
0.071873
0.068947
0.061997
0.049927
0.048830
0.064923
0.051939
-0.091990
-0.452085
-0.929041
-1.185076
-0.916057
-0.264996
0.239941
0.294989
0.111009
0.012985
0.038954
0.064923
0.044989
0.015911
0.009876
0.041880
0.082846
0.083943
0.048830
0.041880
0.079005
0.099854
0.069861
0.034930
0.044989
0.092904
0.127835
0.109912
0.064009
0.057974
0.086869
0.080834
0.039868
0.049927
0.122897
0.152889
0.089978
0.020849
0.018837
0.047001
0.044989
0.032919
0.047915
0.070958
0.067849
0.055962
0.057974
0.058888
0.048830
0.042977
0.053950
0.069861
0.080834
0.077908
0.059985
0.044989
0.053950
0.077908
0.092904
0.087966
0.067849
0.037857
0.010973
-0.004023
-0.005121
0.012985
0.051939
0.098939
0.126006
0.116862
0.091990
0.077908
0.085955
0.102963
0.111924
0.104974
0.095830
0.102963
0.116862
0.111924
0.088881
0.082846
0.102963
0.111009
0.088881
0.067849
0.079920
0.100951
0.096928
0.068947
0.044989
0.048830
0.076993
0.082846
-0.023043
-0.335040
-0.805047
-1.142099
-1.012070
-0.448061
0.096928
0.256949
0.131858
0.024872
0.027981
0.041880
0.023958
0.017008
0.039868
0.064009
0.058888
0.036942
0.042977
0.079005
0.096928
0.088881
0.091990
0.111009
0.111924
0.091990
0.081931
0.091990
0.102963
0.100951
0.090892
0.084857
0.084857
0.083943
0.081931
0.083943
0.086869
0.084857
0.077908
0.073884
0.075896
0.079920
0.079005
0.066935
0.052853
0.048830
0.049927
0.045903
0.037857
0.036942
0.045903
0.053950
0.057974
0.059985
0.055962
0.045903
0.040966
0.041880
0.040966
0.035845
0.033833
0.032004
0.017922
-0.011156
-0.039137
-0.042063
-0.006035
0.049927
0.082846
0.079920
0.064923
0.056876
0.047001
0.034930
0.043892
0.067849
0.075896
0.058888
0.039868
0.033833
0.036942
0.042977
0.043892
0.041880
0.045903
0.054865
0.054865
0.040966
0.032004
0.037857
0.049927
0.051939
0.048830
0.044989
0.012985
-0.152158
-0.549012
-1.027066
-1.172092
-0.759144
-0.106072
0.269934
0.240856
0.080834
0.021946
0.048830
0.068947
0.055962
0.033833
0.028895
0.040966
0.053950
0.062911
0.079920
0.096928
0.094001
0.080834
0.084857
0.106986
0.123994
0.120885
0.105889
0.095830
0.102963
0.111009
0.104974
0.091990
0.088881
0.104974
0.119971
0.109912
0.079005
0.064923
0.080834
0.092904
0.081931
0.069861
0.068947
0.062911
0.050841
0.047915
0.050841
0.044989
0.033833
0.029993
0.038954
0.060900
0.083943
0.085955
0.065838
0.049927
0.051939
0.057974
0.059985
0.064923
0.069861
0.064923
0.045903
0.009876
-0.033102
-0.046086
-0.006035
0.059985
0.105889
0.116862
0.099854
0.076993
0.066935
0.069861
0.077908
0.092904
0.113936
0.123994
0.106986
0.079005
0.064009
0.074982
0.098939
0.105889
0.087966
0.069861
0.073884
0.092904
0.105889
0.105889
0.097842
0.088881
0.080834
0.072970
0.079005
0.086869
-0.020117
-0.395025
-0.931053
-1.180139
-0.821141
-0.128018
0.319861
0.305962
0.099854
0.000914
0.032004
0.068947
0.053950
0.023958
0.022860
0.047915
0.073884
0.090892
0.106986
0.116862
0.114850
0.115947
0.150878
0.202999
0.205011
0.152889
0.116862
0.109912
0.101865
0.121982
0.192941
0.220922
0.156913
0.094001
0.090892
0.090892
0.076993
0.102963
0.155998
0.155998
0.090892
0.053950
0.114850
0.194952
0.181968
0.117959
0.123994
0.160936
0.113936
0.043892
0.085955
0.184894
0.186906
0.105889
0.069861
0.106986
0.137893
0.128932
0.120885
0.124909
0.098939
0.041880
0.024872
0.082846
0.150878
0.162948
0.127835
0.094916
0.089978
0.126920
0.190929
0.214887
0.154901
0.084857
0.097842
0.152889
0.160936
0.139905
0.151975
0.173921
0.159839
0.128932
0.117959
0.124909
0.130944
0.123994
0.112838
0.111009
0.111924
0.102963
0.095830
0.108998
0.127835
0.126920
0.091990
-0.047001
-0.408010
-0.934162
-1.248171
-0.986101
-0.305047
0.230980
0.321873
0.180870
0.094001
0.085955
0.087966
0.094001
0.099854
0.081931
0.059985
0.069861
0.106986
0.136979
0.133870
0.099854
0.069861
0.074982
0.107900
0.135881
0.145940
0.146854
0.144843
0.138990
0.131858
0.115947
0.088881
0.081931
0.105889
0.124909
0.103877
0.072970
0.070958
0.084857
0.074982
0.037857
0.023958
0.059985
0.097842
0.069861
0.019934
0.042977
0.112838
0.121982
0.049927
-0.021031
-0.036028
-0.011156
0.019934
0.040966
0.062911
0.092904
0.099854
0.054865
-0.007132
-0.029078
-0.023043
-0.037125
-0.055048
-0.022129
0.044989
0.073884
0.047915
0.022860
0.030907
0.043892
0.027981
0.008961
0.027981
0.065838
0.068947
0.043892
0.041880
0.064923
0.064923
0.037857
0.025969
0.041880
0.058888
0.056876
0.041880
0.024872
0.008961
-0.007132
-0.010059
0.012985
0.042977
0.044989
-0.004023
-0.146123
-0.481163
-0.982992
-1.300109
-1.056145
-0.391002
0.136979
0.236832
0.120885
0.051939
0.032919
-0.012070
-0.049012
-0.026152
0.028895
0.058888
0.051939
0.029993
0.013899
0.013899
0.032919
0.056876
0.068947
0.067849
0.073884
0.096928
0.116862
0.115947
0.099854
0.072970
0.032004
-0.002012
0.008961
0.051939
0.070958
0.044989
0.006950
-0.008047
0.000000
0.010973
0.010973
-0.002012
-0.005121
0.017922
0.041880
0.033833
0.011887
0.002012
-0.018105
-0.056145
-0.063094
-0.007132
0.047001
0.035845
-0.004023
-0.016094
-0.013168
-0.023043
-0.027067
-0.009144
-0.017008
-0.076079
-0.127103
-0.108083
-0.036028
0.028895
0.064009
0.071873
0.048830
0.008961
-0.002012
0.026884
0.049927
0.037857
0.020849
0.021946
0.017008
-0.007132
-0.023043
-0.017008
-0.016094
-0.036028
-0.040051
0.000914
0.055962
0.072970
0.037857
-0.002012
-0.007132
0.010973
0.013899
0.006950
-0.002012
-0.088149
-0.362107
-0.804133
-1.148134
-1.065106
-0.544989
0.000914
0.188003
0.081931
-0.008047
0.015911
0.035845
-0.002012
-0.034016
-0.023043
0.000914
0.013899
0.017922
0.020849
0.030907
0.047001
0.050841
0.035845
0.020849
0.021946
0.033833
0.048830
0.058888
0.058888
0.055962
0.059985
0.064923
0.053950
0.029993
0.018837
0.037857
0.064923
0.064009
0.036942
0.018837
0.023958
0.030907
0.023958
0.014996
0.013899
0.017922
0.030907
0.050841
0.057974
0.042977
0.028895
0.035845
0.047001
0.037857
0.022860
0.023958
0.032004
0.018837
-0.002012
0.002012
0.015911
-0.005121
-0.050110
-0.054133
0.002926
0.056876
0.062911
0.054865
0.069861
0.082846
0.051939
0.006950
0.019934
0.089978
0.134967
0.102963
0.044989
0.020849
0.014996
0.002012
0.000000
0.024872
0.059985
0.095830
0.118873
0.097842
0.047915
0.033833
0.069861
0.089978
0.055962
0.022860
0.020849
0.005852
-0.129115
-0.501097
-1.024140
-1.268105
-0.888990
-0.173007
0.272860
0.276884
0.130944
0.050841
0.026884
0.019934
0.027981
0.040966
0.047915
0.044989
0.038954
0.059985
0.111009
0.141002
0.126006
0.124909
0.170995
0.200988
0.183979
0.170995
0.174835
0.155998
0.129846
0.144843
0.171909
0.161851
0.137893
0.151975
0.183979
0.178859
0.150878
0.178859
0.244879
0.216898
0.089978
0.044989
0.131858
0.173007
0.092904
0.039868
0.088881
0.128932
0.101865
0.086869
0.123994
0.144843
0.102963
0.049927
0.059985
0.111009
0.124909
0.087966
0.061997
0.067849
0.070958
0.050841
0.015911
-0.014082
-0.008047
0.038954
0.091990
0.118873
0.120885
0.107900
0.094916
0.090892
0.088881
0.081931
0.077908
0.067849
0.041880
0.033833
0.080834
0.135881
0.124909
0.070958
0.051939
0.077908
0.097842
0.094916
0.088881
0.080834
0.066935
0.051939
0.038954
0.040966
0.073884
0.111009
0.068947
-0.122165
-0.484089
-0.924104
-1.163131
-0.917154
-0.291148
0.235004
0.353877
0.227871
0.137893
0.120885
0.087966
0.041880
0.028895
0.032919
0.028895
0.039868
0.085955
0.134967
0.141002
0.120885
0.115947
0.111009
0.059985
-0.001097
0.023958
0.129846
0.189832
0.142831
0.076993
0.088881
0.142831
0.145940
0.097842
0.069861
0.064923
0.037857
0.018837
0.055962
0.091990
0.055962
0.006950
0.020849
0.059985
0.065838
0.045903
0.032004
0.032919
0.048830
0.060900
0.043892
0.008961
-0.005121
0.010973
0.022860
0.013899
0.010973
0.032919
0.042977
0.006950
-0.039137
-0.052121
-0.059071
-0.076993
-0.063094
-0.005121
0.047915
0.058888
0.032004
-0.013168
-0.039137
-0.018105
0.023958
0.050841
0.062911
0.055962
0.004938
-0.059071
-0.049012
0.032004
0.083943
0.074982
0.051939
0.019934
-0.032004
-0.035113
0.039868
0.090892
0.049927
-0.003109
0.003841
0.025969
0.002012
-0.042063
-0.100037
-0.298098
-0.723116
-1.152158
-1.163131
-0.645025
-0.008047
0.286942
0.222933
0.091990
0.059985
0.065838
0.042977
0.025969
0.039868
0.045903
0.021946
0.002926
0.015911
0.025969
0.002926
-0.017008
0.008961
0.061997
0.086869
0.072970
0.056876
0.055962
0.052853
0.043892
0.047915
0.056876
0.047001
0.027981
0.022860
0.034930
0.050841
0.061997
0.056876
0.021946
-0.014082
-0.011156
0.019934
0.037857
0.042977
0.037857
0.007864
-0.029993
-0.023043
0.019934
0.044989
0.035845
0.008961
-0.016094
-0.021031
-0.009144
-0.008047
-0.014082
-0.002012
0.008961
-0.007132
-0.023043
-0.022129
-0.022129
-0.019020
0.000914
0.008961
-0.014996
-0.033102
-0.006035
0.050841
0.087966
0.076993
0.047001
0.037857
0.038954
0.028895
0.035845
0.082846
0.109912
0.067849
0.008961
0.005852
0.037857
0.047001
0.038954
0.032004
0.017008
0.015911
0.052853
0.092904
0.115947
0.142831
0.131858
-0.004023
-0.284016
-0.655084
-0.941112
-0.858083
-0.362107
0.159839
0.340892
0.254938
0.156913
0.114850
0.073884
0.028895
0.009876
0.018837
0.025969
0.007864
-0.009144
0.002926
0.027981
0.044989
0.060900
0.080834
0.082846
0.072970
0.075896
0.079920
0.061997
0.038954
0.045903
0.067849
0.070958
0.054865
0.040966
0.037857
0.043892
0.056876
0.061997
0.045903
0.030907
0.033833
0.037857
0.018837
-0.002012
0.008961
0.040966
0.048830
0.025969
0.011887
0.026884
0.034930
0.005852
-0.028164
-0.014996
0.032004
0.052853
0.029993
0.005852
0.002926
-0.011156
-0.049012
-0.075165
-0.061997
-0.032004
-0.009144
0.010973
0.028895
0.034930
0.030907
0.022860
0.012985
0.010973
0.026884
0.040966
0.021946
-0.012070
-0.014996
0.017008
0.037857
0.018837
-0.013168
-0.017008
0.018837
0.054865
0.041880
-0.003109
-0.012070
0.030907
0.061997
0.066935
0.118873
0.235004
0.306876
0.232992
0.002012
-0.365033
-0.750000
-0.856071
-0.481163
0.135881
0.513899
0.486832
0.304865
0.231895
0.264996
0.270848
0.214887
0.168983
0.178859
0.210863
0.208851
0.179956
0.163862
0.181968
0.201902
0.190929
0.166971
0.171909
0.205925
0.223848
0.206840
0.188003
0.192941
0.201902
0.184894
0.154901
0.144843
0.156913
0.164960
0.149963
0.126006
0.124909
0.149963
0.167886
0.152889
0.126006
0.116862
0.119971
0.114850
0.105889
0.109912
0.124909
0.124909
0.106986
0.092904
0.102963
0.120885
0.128932
0.127835
0.126006
0.122897
0.120885
0.117959
0.105889
0.075896
0.048830
0.047001
0.057974
0.060900
0.066935
0.095830
0.133870
0.147952
0.137893
0.128932
0.128932
0.128932
0.127835
0.128932
0.124909
0.114850
0.109912
0.111924
0.103877
0.084857
0.075896
0.086869
0.099854
0.094916
0.081931
0.079920
0.091990
0.103877
0.092904
0.064009
0.061997
0.095830
0.080834
-0.091990
-0.426115
-0.786028
-0.927030
-0.655998
-0.111009
0.295903
0.345830
0.223848
0.164960
0.171909
0.161851
0.135881
0.123994
0.119971
0.118873
0.121982
0.124909
0.126006
0.128932
0.128932
0.123994
0.124909
0.141917
0.158925
0.156913
0.142831
0.132955
0.131858
0.133870
0.135881
0.136979
0.137893
0.138990
0.139905
0.139905
0.136979
0.128932
0.118873
0.115947
0.118873
0.116862
0.111924
0.108998
0.111009
0.111009
0.102963
0.094001
0.094916
0.101865
0.106986
0.104974
0.099854
0.102963
0.113936
0.116862
0.103877
0.089978
0.081931
0.070958
0.053950
0.037857
0.032919
0.043892
0.073884
0.104974
0.120885
0.123994
0.131858
0.144843
0.144843
0.126006
0.104974
0.100951
0.111009
0.116862
0.115947
0.116862
0.118873
0.112838
0.107900
0.121982
0.143928
0.144843
0.126920
0.120885
0.127835
0.126006
0.112838
0.100951
0.097842
0.118873
0.135881
0.071873
-0.132041
-0.472019
-0.826993
-0.913131
-0.544074
0.022860
0.333943
0.308888
0.211960
0.185991
0.175933
0.158925
0.158925
0.151975
0.116862
0.094916
0.112838
0.141002
0.143928
0.136979
0.152889
0.182882
0.192941
0.175933
0.155998
0.150878
0.166971
0.196964
0.214887
0.195867
0.158010
0.142831
0.164960
0.191843
0.190929
0.165874
0.144843
0.146854
0.159839
0.164960
0.163862
0.164960
0.165874
0.162948
0.159839
0.159839
0.158010
0.153987
0.159839
0.173921
0.183979
0.180870
0.170995
0.165874
0.170995
0.176847
0.164960
0.135881
0.111924
0.098939
0.082846
0.067849
0.085955
0.141917
0.189832
0.202999
0.194952
0.184894
0.176847
0.178859
0.197879
0.206840
0.190929
0.178859
0.185991
0.189832
0.175933
0.166971
0.173921
0.176847
0.167886
0.160936
0.156913
0.152889
0.158925
0.178859
0.185991
0.159839
0.128932
0.130944
0.160936
0.185991
0.144843
-0.041148
-0.405084
-0.834126
-1.038039
-0.759144
-0.116130
0.408010
0.486832
0.297001
0.174835
0.188917
0.208851
0.189832
0.175933
0.177944
0.174835
0.164960
0.158925
0.150878
0.139905
0.141002
0.166971
0.210863
0.243965
0.235918
0.197879
0.174835
0.179956
0.196964
0.221836
0.237930
0.208851
0.162948
0.169898
0.206840
0.191843
0.135881
0.121982
0.158925
0.192941
0.202999
0.194952
0.164960
0.129846
0.123994
0.145940
0.160936
0.163862
0.171909
0.174835
0.158010
0.141002
0.144843
0.149963
0.137893
0.120885
0.119971
0.138990
0.158925
0.143928
0.079005
0.012985
0.015911
0.094001
0.167886
0.181968
0.166971
0.168983
0.173007
0.153987
0.138990
0.158010
0.179956
0.173007
0.160936
0.170995
0.178859
0.169898
0.163862
0.174835
0.181968
0.165874
0.139905
0.128932
0.139905
0.147952
0.146854
0.152889
0.160936
0.154901
0.148866
0.153987
0.132955
0.019934
-0.273043
-0.729151
-1.044989
-0.843087
-0.213058
0.300841
0.383870
0.254938
0.203914
0.228968
0.211960
0.160936
0.142831
0.167886
0.197879
0.202999
0.181968
0.165874
0.171909
0.184894
0.193855
0.201902
0.198976
0.179956
0.176847
0.200988
0.214887
0.209949
0.220007
0.241953
0.235004
0.200988
0.186906
0.205011
0.220922
0.215984
0.200988
0.196964
0.200988
0.197879
0.188003
0.180870
0.176847
0.171909
0.173007
0.184894
0.192941
0.185991
0.169898
0.167886
0.188003
0.205925
0.197879
0.169898
0.160936
0.182882
0.201902
0.184894
0.145940
0.120885
0.119971
0.128932
0.148866
0.171909
0.183979
0.184894
0.192941
0.205925
0.211960
0.211960
0.208851
0.197879
0.182882
0.182882
0.200988
0.216898
0.217996
0.206840
0.191843
0.176847
0.175933
0.193855
0.209949
0.197879
0.169898
0.164960
0.186906
0.195867
0.170995
0.149963
0.170995
0.183979
0.062911
-0.279993
-0.738112
-1.001097
-0.798098
-0.232992
0.261887
0.383870
0.255852
0.156913
0.169898
0.196964
0.183979
0.162948
0.159839
0.167886
0.173921
0.171909
0.163862
0.160936
0.177944
0.207937
0.220007
0.207937
0.201902
0.211960
0.207937
0.180870
0.177944
0.210863
0.232992
0.202999
0.149963
0.123994
0.136979
0.160936
0.167886
0.161851
0.156913
0.153987
0.159839
0.183979
0.200988
0.174835
0.138990
0.136979
0.145940
0.131858
0.115947
0.121982
0.139905
0.148866
0.145940
0.132955
0.112838
0.101865
0.106986
0.116862
0.117959
0.100951
0.062911
0.024872
0.017922
0.056876
0.115947
0.152889
0.153987
0.136979
0.127835
0.129846
0.141917
0.158925
0.165874
0.156913
0.146854
0.147952
0.148866
0.141917
0.141002
0.148866
0.141002
0.112838
0.099854
0.121982
0.151975
0.160936
0.153987
0.138990
0.118873
0.114850
0.144843
0.166971
0.098939
-0.106072
-0.447147
-0.828090
-0.975128
-0.651061
-0.050110
0.331931
0.298829
0.118873
0.057974
0.096928
0.126920
0.128932
0.122897
0.113936
0.116862
0.132955
0.146854
0.156913
0.167886
0.152889
0.100951
0.066935
0.101865
0.167886
0.191843
0.162948
0.136979
0.151975
0.167886
0.131858
0.075896
0.083943
0.155998
0.198976
0.168983
0.108998
0.071873
0.071873
0.094001
0.111009
0.108998
0.094916
0.089978
0.106986
0.127835
0.111009
0.066935
0.056876
0.087966
0.091990
0.065838
0.081931
0.141002
0.159839
0.126006
0.106986
0.114850
0.097842
0.041880
-0.007132
-0.005121
0.051939
0.134967
0.177944
0.137893
0.060900
0.034930
0.073884
0.118873
0.135881
0.144843
0.156913
0.147952
0.113936
0.091990
0.109912
0.142831
0.153987
0.151975
0.158925
0.156913
0.123994
0.084857
0.086869
0.126920
0.158925
0.161851
0.151975
0.143928
0.126920
0.084857
-0.038039
-0.361009
-0.847110
-1.123994
-0.833028
-0.167154
0.304865
0.337966
0.184894
0.121982
0.152889
0.160936
0.118873
0.080834
0.085955
0.109912
0.124909
0.135881
0.146854
0.141917
0.123994
0.123994
0.156913
0.200988
0.212875
0.174835
0.128932
0.127835
0.165874
0.188003
0.174835
0.158925
0.158925
0.161851
0.154901
0.144843
0.148866
0.160936
0.153987
0.124909
0.116862
0.141002
0.148866
0.120885
0.103877
0.134967
0.171909
0.162948
0.127835
0.114850
0.121982
0.124909
0.124909
0.132955
0.138990
0.131858
0.120885
0.106986
0.072970
0.033833
0.026884
0.055962
0.088881
0.109912
0.122897
0.124909
0.116862
0.102963
0.088881
0.084857
0.100951
0.117959
0.117959
0.114850
0.135881
0.158010
0.141917
0.103877
0.095830
0.115947
0.128932
0.128932
0.126920
0.117959
0.101865
0.095830
0.104974
0.114850
0.114850
0.105889
0.101865
0.101865
0.019934
-0.283102
-0.769020
-1.099122
-0.924104
-0.335040
0.173007
0.278895
0.148866
0.092904
0.150878
0.182882
0.152889
0.118873
0.105889
0.095830
0.082846
0.081931
0.098939
0.126920
0.138990
0.127835
0.111009
0.106986
0.114850
0.133870
0.156913
0.156913
0.120885
0.084857
0.090892
0.126920
0.155998
0.167886
0.158925
0.121982
0.084857
0.096928
0.144843
0.153987
0.114850
0.095830
0.126006
0.154901
0.147952
0.129846
0.115947
0.094001
0.075896
0.084857
0.108998
0.123994
0.124909
0.117959
0.106986
0.102963
0.104974
0.099854
0.079920
0.047915
0.014996
0.000000
0.023958
0.085955
0.143928
0.158925
0.132955
0.111009
0.120885
0.139905
0.132955
0.102963
0.084857
0.094001
0.111009
0.118873
0.123994
0.129846
0.129846
0.116862
0.101865
0.095830
0.105889
0.122897
0.120885
0.098939
0.088881
0.100951
0.099854
0.072970
0.060900
0.077908
0.027981
-0.226042
-0.669166
-1.031090
-0.981163
-0.499085
0.038954
0.263899
0.200988
0.114850
0.120885
0.138990
0.112838
0.082846
0.079005
0.085955
0.095830
0.106986
0.109912
0.102963
0.107900
0.128932
0.141917
0.136979
0.127835
0.127835
0.135881
0.137893
0.126006
0.108998
0.109912
0.129846
0.141002
0.135881
0.129846
0.126006
0.114850
0.102963
0.106986
0.117959
0.114850
0.100951
0.095830
0.106986
0.119971
0.121982
0.113936
0.099854
0.088881
0.081931
0.077908
0.076993
0.087966
0.102963
0.106986
0.100951
0.096928
0.092904
0.073884
0.037857
0.002926
-0.010059
0.015911
0.079005
0.135881
0.145940
0.124909
0.116862
0.111924
0.080834
0.053950
0.080834
0.131858
0.144843
0.123994
0.117959
0.119971
0.095830
0.066935
0.075896
0.108998
0.114850
0.094916
0.092904
0.112838
0.116862
0.098939
0.088881
0.096928
0.105889
0.111009
0.104974
-0.014996
-0.372165
-0.868142
-1.123994
-0.854060
-0.243050
0.221836
0.291880
0.155998
0.076993
0.086869
0.084857
0.056876
0.058888
0.090892
0.104974
0.095830
0.092904
0.098939
0.098939
0.099854
0.109912
0.113936
0.106986
0.106986
0.120885
0.127835
0.111924
0.094001
0.100951
0.124909
0.130944
0.112838
0.102963
0.111924
0.108998
0.070958
0.037857
0.050841
0.088881
0.099854
0.075896
0.047915
0.041880
0.058888
0.082846
0.090892
0.083943
0.071873
0.056876
0.041880
0.048830
0.077908
0.094001
0.079005
0.057974
0.055962
0.053950
0.021946
-0.036028
-0.070044
-0.039137
0.037857
0.097842
0.113936
0.107900
0.105889
0.100951
0.090892
0.090892
0.099854
0.100951
0.092904
0.087966
0.089978
0.095830
0.095830
0.080834
0.065838
0.076993
0.089978
0.070958
0.050841
0.069861
0.109912
0.121982
0.105889
0.085955
0.080834
0.087966
0.090892
0.040966
-0.144111
-0.510058
-0.930139
-1.080102
-0.738112
-0.117045
0.290966
0.269934
0.060900
-0.042063
-0.019020
0.011887
0.002926
-0.023043
-0.047001
-0.038039
0.015911
0.060900
0.047915
0.008961
0.008961
0.045903
0.070958
0.073884
0.080834
0.094001
0.094001
0.070958
0.044989
0.043892
0.068947
0.089978
0.081931
0.061997
0.055962
0.064923
0.068947
0.060900
0.038954
0.006950
-0.008047
0.012985
0.041880
0.042977
0.025969
0.027981
0.047001
0.049927
0.024872
-0.006035
-0.012070
0.008961
0.027981
0.020849
0.000000
-0.014996
-0.038039
-0.082114
-0.105157
-0.076079
-0.041148
-0.044075
-0.044989
0.000914
0.056876
0.065838
0.037857
0.015911
0.012985
0.017922
0.025969
0.030907
0.029993
0.027981
0.024872
0.012985
0.008961
0.025969
0.041880
0.032919
0.021946
0.028895
0.039868
0.036942
0.026884
0.019934
0.017922
0.019934
0.025969
0.033833
0.017922
-0.047001
-0.193124
-0.485004
-0.905998
-1.172092
-0.931053
-0.290051
0.211960
0.264996
0.080834
-0.033102
-0.035113
-0.014996
0.003841
0.028895
0.040966
0.024872
-0.001097
-0.008047
0.014996
0.051939
0.081931
0.088881
0.080834
0.071873
0.068947
0.067849
0.066935
0.067849
0.070958
0.073884
0.077908
0.084857
0.094001
0.091990
0.068947
0.041880
0.033833
0.049927
0.066935
0.073884
0.073884
0.061997
0.037857
0.026884
0.040966
0.057974
0.055962
0.041880
0.037857
0.048830
0.058888
0.055962
0.048830
0.054865
0.062911
0.054865
0.035845
0.020849
0.008961
-0.013168
-0.044989
-0.067118
-0.046086
0.020849
0.081931
0.092904
0.067849
0.045903
0.034930
0.025969
0.025969
0.047001
0.069861
0.068947
0.047001
0.034930
0.047915
0.066935
0.064009
0.041880
0.024872
0.030907
0.048830
0.060900
0.052853
0.036942
0.032919
0.042977
0.048830
0.045903
0.059985
0.079005
0.018837
-0.213058
-0.625091
-1.042063
-1.130029
-0.710131
-0.076993
0.272860
0.224945
0.071873
0.029993
0.054865
0.054865
0.030907
0.018837
0.022860
0.033833
0.051939
0.076993
0.085955
0.064009
0.039868
0.048830
0.077908
0.094001
0.090892
0.075896
0.057974
0.044989
0.044989
0.053950
0.054865
0.043892
0.034930
0.041880
0.051939
0.039868
0.005852
-0.022129
-0.016094
0.025969
0.073884
0.082846
0.043892
0.006950
0.008961
0.035845
0.059985
0.064923
0.039868
0.005852
0.004938
0.032919
0.047001
0.041880
0.050841
0.062911
0.032919
-0.023043
-0.051024
-0.054133
-0.066020
-0.058157
0.002926
0.066935
0.074982
0.048830
0.041880
0.049927
0.053950
0.056876
0.064923
0.064009
0.047915
0.037857
0.044989
0.061997
0.075896
0.076993
0.065838
0.059985
0.072970
0.085955
0.074982
0.040966
0.014996
0.022860
0.048830
0.066935
0.079920
0.094916
0.090892
0.028895
-0.170080
-0.578091
-1.042063
-1.137161
-0.657096
0.008961
0.318947
0.224945
0.069861
0.049927
0.084857
0.081931
0.056876
0.039868
0.034930
0.047001
0.072970
0.083943
0.066935
0.058888
0.080834
0.095830
0.079005
0.068947
0.094916
0.124909
0.130944
0.119971
0.105889
0.086869
0.067849
0.061997
0.073884
0.094916
0.103877
0.095830
0.079920
0.067849
0.061997
0.062911
0.073884
0.088881
0.092904
0.088881
0.082846
0.076993
0.070958
0.067849
0.066935
0.072970
0.083943
0.094001
0.088881
0.068947
0.055962
0.067849
0.086869
0.074982
0.023958
-0.031090
-0.035113
0.026884
0.099854
0.123994
0.095830
0.069861
0.068947
0.072970
0.067849
0.067849
0.079005
0.089978
0.098939
0.104974
0.101865
0.098939
0.108998
0.114850
0.092904
0.058888
0.049927
0.071873
0.094001
0.096928
0.090892
0.092904
0.101865
0.106986
0.108998
0.101865
0.073884
-0.013168
-0.261156
-0.715069
-1.123079
-1.063094
-0.500000
0.081931
0.282004
0.196964
0.109912
0.103877
0.111009
0.102963
0.094916
0.098939
0.113936
0.118873
0.107900
0.115947
0.155998
0.168983
0.126006
0.087966
0.096928
0.117959
0.126006
0.149963
0.195867
0.217996
0.180870
0.123994
0.123994
0.194952
0.238844
0.191843
0.123994
0.111009
0.128932
0.130944
0.129846
0.135881
0.133870
0.141917
0.181968
0.209949
0.171909
0.098939
0.077908
0.124909
0.174835
0.188917
0.179956
0.158010
0.122897
0.102963
0.124909
0.159839
0.162948
0.128932
0.077908
0.039868
0.061997
0.138990
0.185991
0.158010
0.120885
0.141002
0.188003
0.214887
0.218910
0.217996
0.220007
0.216898
0.192941
0.167886
0.167886
0.173921
0.156913
0.138990
0.144843
0.143928
0.114850
0.090892
0.101865
0.124909
0.124909
0.103877
0.089978
0.094001
0.105889
0.111924
0.070958
-0.116130
-0.519020
-0.993050
-1.178127
-0.851134
-0.229151
0.224945
0.300841
0.180870
0.094916
0.062911
0.026884
0.012985
0.047001
0.082846
0.082846
0.079005
0.094916
0.100951
0.080834
0.060900
0.066935
0.100951
0.135881
0.144843
0.118873
0.084857
0.073884
0.076993
0.079005
0.089978
0.115947
0.126006
0.100951
0.069861
0.059985
0.065838
0.076993
0.088881
0.089978
0.074982
0.061997
0.070958
0.073884
0.033833
-0.020117
-0.020117
0.035845
0.077908
0.072970
0.062911
0.062911
0.047001
0.022860
0.027981
0.058888
0.069861
0.039868
-0.005121
-0.039137
-0.055048
-0.049012
-0.018105
0.028895
0.070958
0.081931
0.056876
0.022860
0.017008
0.041880
0.066935
0.071873
0.067849
0.060900
0.038954
0.015911
0.021946
0.053950
0.064923
0.043892
0.032004
0.037857
0.030907
0.004938
-0.001097
0.014996
0.014996
-0.002012
0.005852
0.036942
0.034930
-0.051024
-0.292063
-0.739027
-1.189100
-1.212143
-0.667154
-0.009144
0.252012
0.150878
0.043892
0.054865
0.069861
0.045903
0.022860
-0.006035
-0.048098
-0.044989
0.008961
0.051939
0.056876
0.044989
0.018837
-0.014082
-0.006035
0.055962
0.098939
0.068947
0.022860
0.034930
0.076993
0.082846
0.054865
0.043892
0.064923
0.073884
0.036942
-0.017008
-0.022129
0.021946
0.047915
0.020849
-0.006035
0.007864
0.026884
0.007864
-0.017008
-0.005121
0.020849
0.015911
-0.013168
-0.027067
-0.011156
0.021946
0.044989
0.037857
0.002012
-0.029993
-0.034016
-0.034016
-0.065106
-0.108998
-0.105157
-0.031090
0.053950
0.067849
0.014996
-0.014082
0.022860
0.064009
0.057974
0.037857
0.045903
0.064009
0.056876
0.025969
-0.001097
-0.005121
0.008961
0.020849
0.017922
0.004938
-0.003109
0.005852
0.024872
0.024872
0.003841
0.000000
0.023958
0.027981
-0.008047
-0.026152
0.010973
-0.019020
-0.297001
-0.792063
-1.163131
-1.061082
-0.541148
-0.013168
0.203914
0.154901
0.062911
0.041880
0.056876
0.061997
0.047001
0.019934
-0.004023
-0.006035
0.018837
0.047915
0.055962
0.044989
0.041880
0.058888
0.079920
0.079005
0.060900
0.054865
0.066935
0.070958
0.064923
0.071873
0.084857
0.079005
0.058888
0.041880
0.029993
0.026884
0.037857
0.053950
0.053950
0.030907
0.000914
-0.011156
0.004938
0.030907
0.039868
0.029993
0.017922
0.015911
0.024872
0.037857
0.043892
0.035845
0.023958
0.017922
0.012985
-0.005121
-0.037125
-0.070044
-0.086138
-0.084126
-0.066020
-0.035113
-0.005121
0.007864
0.011887
0.020849
0.023958
0.007864
-0.014082
-0.016094
0.000000
0.006950
-0.005121
-0.020117
-0.016094
-0.005121
-0.005121
-0.010059
0.002012
0.024872
0.037857
0.036942
0.022860
-0.005121
-0.028164
-0.013168
0.025969
0.036942
0.015911
0.002012
0.000000
-0.059071
-0.282004
-0.713058
-1.144111
-1.154169
-0.605157
0.052853
0.288954
0.122897
-0.063094
-0.086138
-0.040051
-0.014996
-0.002012
0.014996
0.023958
0.009876
-0.014082
-0.021031
-0.006035
0.004938
-0.010059
-0.028164
-0.009144
0.039868
0.070958
0.081931
0.094916
0.074982
0.006950
-0.003109
0.096928
0.158925
0.075896
-0.006035
0.053950
0.135881
0.088881
-0.008047
-0.004023
0.079005
0.122897
0.089978
0.024872
-0.007132
0.034930
0.094916
0.061997
-0.037125
-0.033102
0.113936
0.216898
0.136979
-0.008047
-0.023043
0.084857
0.142831
0.094001
0.041880
0.035845
0.011887
-0.027067
-0.010059
0.038954
0.060900
0.089978
0.141917
0.142831
0.079920
0.047001
0.082846
0.124909
0.127835
0.106986
0.091990
0.099854
0.135881
0.153987
0.115947
0.067849
0.092904
0.174835
0.214887
0.189832
0.160936
0.142831
0.112838
0.107900
0.156913
0.173007
0.088881
0.013899
0.048830
0.102963
0.003841
-0.338149
-0.841075
-1.174104
-0.977139
-0.334126
0.235918
0.399963
0.302853
0.191843
0.114850
0.059985
0.066935
0.126920
0.159839
0.144843
0.144843
0.173007
0.155998
0.083943
0.040966
0.072970
0.132955
0.171909
0.178859
0.155998
0.128932
0.138990
0.174835
0.190929
0.179956
0.169898
0.164960
0.152889
0.134967
0.126006
0.130944
0.139905
0.145940
0.151975
0.154901
0.133870
0.097842
0.099854
0.153987
0.176847
0.103877
0.000914
-0.022129
0.027981
0.072970
0.087966
0.087966
0.066935
0.039868
0.053950
0.103877
0.126006
0.097842
0.056876
0.026884
0.004938
-0.013168
-0.022129
-0.014082
0.014996
0.062911
0.108998
0.118873
0.077908
0.026884
0.024872
0.064009
0.089978
0.084857
0.069861
0.058888
0.056876
0.065838
0.055962
0.009876
-0.013168
0.037857
0.095830
0.071873
-0.002012
-0.029993
-0.010059
-0.013168
-0.050110
-0.065106
-0.019020
0.061997
0.086869
-0.039137
-0.339064
-0.757132
-1.103145
-1.054133
-0.523043
0.076993
0.288954
0.180870
0.106986
0.136979
0.105889
0.003841
-0.039137
0.005852
0.051939
0.049927
0.024872
0.010973
0.018837
0.028895
0.032919
0.057974
0.111924
0.127835
0.066935
0.002012
0.008961
0.051939
0.055962
0.025969
0.011887
0.019934
0.022860
0.013899
0.010973
0.020849
0.028895
0.024872
0.009876
0.002012
0.013899
0.026884
0.010973
-0.032004
-0.060168
-0.044075
-0.006035
0.008961
-0.011156
-0.034016
-0.024140
0.003841
0.010973
-0.018105
-0.050110
-0.049012
-0.017008
0.005852
-0.007132
-0.048098
-0.086138
-0.110095
-0.119056
-0.099122
-0.051024
-0.016094
-0.022129
-0.036028
-0.029993
-0.019020
-0.018105
-0.012070
0.006950
0.025969
0.029993
0.003841
-0.039137
-0.060168
-0.054133
-0.052121
-0.052121
-0.041148
-0.042063
-0.054133
-0.031090
0.012985
0.003841
-0.055048
-0.080102
-0.050110
-0.021031
-0.023043
-0.043160
-0.136064
-0.416057
-0.860095
-1.166057
-1.002011
-0.434162
0.076993
0.198976
0.070958
-0.008047
0.017922
0.027981
-0.017008
-0.046086
-0.017008
0.022860
0.005852
-0.046086
-0.050110
-0.013168
-0.014082
-0.041148
-0.027067
0.006950
0.008961
0.003841
0.012985
-0.006035
-0.054133
-0.066020
-0.024140
0.007864
0.006950
0.009876
0.017008
-0.014082
-0.070044
-0.097110
-0.073153
-0.025055
0.013899
0.017008
-0.022129
-0.085040
-0.140088
-0.154170
-0.108083
-0.034016
0.007864
-0.019020
-0.084126
-0.107169
-0.027067
0.120885
0.238844
0.274872
0.260973
0.228968
0.176847
0.104974
0.041880
0.022860
0.051939
0.086869
0.092904
0.091990
0.112838
0.135881
0.130944
0.115947
0.113936
0.109912
0.094001
0.079920
0.085955
0.096928
0.096928
0.088881
0.088881
0.097842
0.094916
0.068947
0.041880
0.040966
0.048830
0.026884
-0.009144
0.002012
0.058888
0.094001
0.080834
0.066935
0.057974
-0.042063
-0.311997
-0.701170
-1.007132
-0.959034
-0.485004
0.082846
0.324982
0.226957
0.098939
0.088881
0.094001
0.050841
0.007864
-0.002012
0.000000
0.003841
0.019934
0.051939
0.079920
0.080834
0.066935
0.059985
0.056876
0.051939
0.053950
0.060900
0.059985
0.051939
0.042977
0.036942
0.035845
0.042977
0.048830
0.044989
0.029993
0.010973
-0.002012
-0.001097
0.010973
0.018837
0.019934
0.012985
-0.008047
-0.029993
-0.025055
0.003841
0.018837
-0.005121
-0.036028
-0.040051
-0.025055
-0.023043
-0.032004
-0.037125
-0.040051
-0.051024
-0.058157
-0.051024
-0.051024
-0.078091
-0.115033
-0.136064
-0.123994
-0.082114
-0.034016
-0.013168
-0.021031
-0.038039
-0.050110
-0.057059
-0.053036
-0.040051
-0.034016
-0.044989
-0.061083
-0.060168
-0.050110
-0.052121
-0.067118
-0.078091
-0.081017
-0.080102
-0.079005
-0.086138
-0.108083
-0.118142
-0.091990
-0.068032
-0.090161
-0.128018
-0.118142
-0.084126
-0.112107
-0.273043
-0.600036
-1.010058
-1.194038
-0.881126
-0.262070
0.167886
0.201902
0.059985
-0.020117
-0.025055
-0.022129
-0.035113
-0.057059
-0.076079
-0.084126
-0.078091
-0.064009
-0.051024
-0.048098
-0.048098
-0.033102
-0.012070
-0.007132
-0.009144
0.018837
0.073884
0.114850
0.120885
0.109912
0.102963
0.100951
0.089978
0.056876
0.029993
0.041880
0.071873
0.074982
0.055962
0.044989
0.049927
0.057974
0.062911
0.055962
0.040966
0.027981
0.014996
-0.006035
-0.017008
-0.002012
0.013899
0.003841
-0.016094
-0.011156
0.013899
0.026884
0.015911
-0.006035
-0.023043
-0.033102
-0.052121
-0.089064
-0.114118
-0.091990
-0.034016
0.017008
0.034930
0.015911
-0.016094
-0.032004
-0.023043
-0.011156
-0.005121
-0.002012
-0.002012
-0.008047
-0.014082
-0.018105
-0.019020
-0.014996
-0.013168
-0.013168
-0.005121
0.004938
-0.011156
-0.048098
-0.061083
-0.034016
-0.016094
-0.038039
-0.067118
-0.061997
-0.043160
-0.051024
-0.097110
-0.241039
-0.581017
-1.007132
-1.126005
-0.715069
-0.089064
0.250914
0.217996
0.100951
0.080834
0.088881
0.047915
0.002926
0.000000
0.003841
-0.019020
-0.038039
-0.025055
0.002012
0.015911
0.022860
0.023958
0.007864
-0.019020
-0.028164
-0.010059
0.009876
0.017922
0.015911
0.004938
-0.016094
-0.029078
-0.026152
-0.016094
-0.009144
-0.023043
-0.061083
-0.089064
-0.068032
-0.022129
-0.019020
-0.066020
-0.096013
-0.078091
-0.050110
-0.049012
-0.064009
-0.073153
-0.074067
-0.069129
-0.054133
-0.038039
-0.032004
-0.040051
-0.054133
-0.067118
-0.070044
-0.061997
-0.052121
-0.047001
-0.044075
-0.046086
-0.061997
-0.095099
-0.128018
-0.138076
-0.115033
-0.073153
-0.037125
-0.020117
-0.019020
-0.032004
-0.057059
-0.068032
-0.052121
-0.031090
-0.028164
-0.031090
-0.031090
-0.042063
-0.065106
-0.070044
-0.049012
-0.038039
-0.053036
-0.065106
-0.052121
-0.041148
-0.050110
-0.057059
-0.044989
-0.038039
-0.052121
-0.061083
-0.043160
-0.023043
-0.052121
-0.181053
-0.451170
-0.824067
-1.085040
-0.955011
-0.435991
0.080834
0.236832
0.111924
0.007864
0.013899
0.020849
-0.011156
-0.029078
-0.011156
0.015911
0.013899
-0.023043
-0.059071
-0.047001
0.000000
0.026884
0.014996
0.000000
0.007864
0.024872
0.032004
0.029993
0.030907
0.032004
0.028895
0.022860
0.019934
0.019934
0.018837
0.012985
0.004938
-0.002012
-0.004023
-0.005121
-0.007132
-0.009144
-0.013168
-0.023043
-0.033102
-0.031090
-0.025055
-0.025055
-0.026152
-0.024140
-0.020117
-0.024140
-0.038039
-0.047001
-0.041148
-0.029993
-0.029078
-0.037125
-0.042063
-0.044989
-0.044075
-0.043160
-0.051024
-0.069129
-0.088149
-0.111009
-0.134053
-0.129115
-0.085040
-0.042063
-0.037125
-0.052121
-0.059071
-0.058157
-0.063094
-0.067118
-0.056145
-0.039137
-0.029078
-0.028164
-0.034016
-0.047001
-0.060168
-0.059071
-0.048098
-0.043160
-0.051024
-0.059071
-0.055048
-0.043160
-0.039137
-0.044989
-0.049012
-0.047001
-0.048098
-0.056145
-0.057059
-0.074067
-0.222019
-0.595099
-1.037125
-1.159107
-0.761156
-0.145026
0.207937
0.186906
0.061997
0.027981
0.035845
0.011887
-0.021031
-0.037125
-0.043160
-0.041148
-0.031090
-0.024140
-0.028164
-0.034016
-0.029993
-0.017008
-0.009144
-0.013168
-0.022129
-0.025055
-0.029993
-0.032004
-0.016094
0.008961
0.010973
-0.016094
-0.039137
-0.044989
-0.048098
-0.058157
-0.061083
-0.047001
-0.027067
-0.021031
-0.046086
-0.091990
-0.114118
-0.087052
-0.036028
0.002012
-0.004023
-0.056145
-0.108083
-0.099122
-0.044075
-0.020117
-0.056145
-0.101134
-0.104060
-0.065106
-0.022129
-0.014996
-0.047001
-0.076993
-0.068032
-0.046086
-0.056145
-0.101134
-0.144111
-0.164045
-0.152158
-0.106072
-0.054133
-0.038039
-0.067118
-0.104060
-0.108083
-0.079005
-0.067118
-0.082114
-0.076079
-0.029993
0.002926
-0.017008
-0.055048
-0.071141
-0.067118
-0.052121
-0.031090
-0.012070
-0.009144
-0.022129
-0.038039
-0.042063
-0.034016
-0.035113
-0.050110
-0.044989
-0.012070
-0.029993
-0.210132
-0.566020
-0.947147
-1.076079
-0.757132
-0.170080
0.228968
0.225859
0.047915
-0.029993
-0.005121
0.004938
-0.014996
-0.023043
-0.020117
-0.020117
-0.016094
-0.005121
0.002012
-0.002012
-0.009144
-0.012070
-0.002012
0.019934
0.038954
0.043892
0.032919
0.017008
0.009876
0.017922
0.034930
0.041880
0.026884
0.000000
-0.010059
0.021946
0.064923
0.047001
-0.034016
-0.080102
-0.029993
0.050841
0.065838
0.018837
-0.032004
-0.048098
-0.013168
0.043892
0.044989
-0.014082
-0.041148
-0.013168
0.000000
0.000914
0.029993
0.039868
-0.016094
-0.065106
-0.032004
0.030907
0.041880
-0.002012
-0.061083
-0.101134
-0.096013
-0.049012
-0.016094
-0.031090
-0.052121
-0.014996
0.059985
0.088881
0.042977
-0.014996
-0.017008
0.017008
0.030907
0.028895
0.044989
0.058888
0.039868
0.009876
0.000000
0.006950
0.030907
0.074982
0.107900
0.097842
0.054865
0.006950
-0.011156
0.030907
0.108998
0.137893
0.064009
-0.091990
-0.343087
-0.728054
-1.105157
-1.123079
-0.622165
0.040966
0.362838
0.271946
0.114850
0.126920
0.191843
0.150878
0.058888
0.035845
0.058888
0.047001
0.017922
0.027981
0.064009
0.080834
0.079920
0.090892
0.131858
0.173007
0.163862
0.106986
0.064009
0.074982
0.115947
0.137893
0.115947
0.074982
0.053950
0.060900
0.079920
0.099854
0.101865
0.065838
0.029993
0.044989
0.079005
0.083943
0.084857
0.106986
0.098939
0.037857
-0.011156
0.002926
0.047915
0.062911
0.027981
-0.019020
-0.020117
0.028895
0.064009
0.030907
-0.043160
-0.079005
-0.038039
0.019934
0.010973
-0.050110
-0.082114
-0.066020
-0.056145
-0.067118
-0.061083
-0.029078
-0.006035
-0.013168
-0.024140
-0.007132
0.032004
0.054865
0.044989
0.037857
0.052853
0.024872
-0.075165
-0.133138
-0.050110
0.070958
0.084857
0.025969
0.008961
0.024872
0.012985
-0.014996
-0.027067
-0.029993
-0.019020
0.011887
0.006950
-0.085040
-0.277066
-0.606071
-1.024140
-1.219093
-0.891002
-0.245062
0.197879
0.247988
0.143928
0.082846
0.030907
-0.041148
-0.073153
-0.047001
-0.017008
-0.013168
-0.022129
-0.033102
-0.029993
-0.007132
0.015911
0.015911
0.003841
0.002012
0.002012
-0.009144
-0.013168
0.012985
0.047001
0.052853
0.025969
-0.012070
-0.037125
-0.032004
-0.001097
0.022860
0.017008
-0.009144
-0.049012
-0.103146
-0.119056
-0.048098
0.039868
0.032919
-0.054133
-0.103146
-0.066020
-0.010059
-0.018105
-0.069129
-0.076993
-0.028164
-0.007132
-0.042063
-0.055048
-0.025055
-0.022129
-0.061083
-0.078091
-0.067118
-0.081017
-0.120154
-0.123994
-0.076079
-0.020117
0.009876
0.003841
-0.027067
-0.056145
-0.063094
-0.057059
-0.053036
-0.041148
-0.021031
-0.028164
-0.072056
-0.108083
-0.093087
-0.049012
-0.023043
-0.029993
-0.053036
-0.087052
-0.121068
-0.117045
-0.061083
0.000914
0.019934
-0.010059
-0.058157
-0.085040
-0.084126
-0.108998
-0.235004
-0.502012
-0.864118
-1.111009
-0.959034
-0.418069
0.082846
0.186906
0.043892
-0.014082
0.045903
0.054865
-0.016094
-0.071141
-0.083029
-0.084126
-0.061083
0.002012
0.041880
0.005852
-0.049012
-0.055048
-0.049012
-0.064009
-0.039137
0.030907
0.054865
0.003841
-0.041148
-0.050110
-0.067118
-0.078091
-0.031090
0.032919
0.037857
0.028895
0.094916
0.195867
0.223848
0.166971
0.096928
0.049927
0.017008
0.008961
0.041880
0.092904
0.113936
0.096928
0.081931
0.086869
0.084857
0.061997
0.044989
0.048830
0.049927
0.037857
0.033833
0.050841
0.062911
0.034930
-0.025055
-0.075165
-0.076079
-0.033102
0.017008
0.042977
0.045903
0.036942
0.020849
0.003841
0.003841
0.015911
0.015911
-0.001097
0.000914
0.027981
0.034930
0.004938
-0.010059
0.011887
0.027981
0.010973
-0.001097
0.014996
0.019934
-0.014996
-0.041148
-0.012070
0.025969
0.012985
-0.011156
0.004938
-0.002012
-0.123080
-0.390088
-0.776152
-1.087052
-0.975128
-0.395025
0.179956
0.320958
0.150878
0.020849
0.013899
0.010973
-0.028164
-0.044075
-0.020117
0.005852
0.008961
0.004938
0.011887
0.021946
0.022860
0.022860
0.028895
0.030907
0.022860
0.022860
0.037857
0.044989
0.023958
0.002012
0.002926
0.013899
0.018837
0.029993
0.056876
0.065838
0.036942
0.002012
-0.005121
0.002012
0.000914
-0.008047
-0.020117
-0.034016
-0.042063
-0.031090
-0.017008
-0.018105
-0.031090
-0.039137
-0.032004
-0.020117
-0.014996
-0.020117
-0.033102
-0.047001
-0.056145
-0.060168
-0.061083
-0.071141
-0.100037
-0.137162
-0.155084
-0.135150
-0.090161
-0.058157
-0.061083
-0.082114
-0.088149
-0.075165
-0.078091
-0.106072
-0.117045
-0.089064
-0.066020
-0.088149
-0.117045
-0.103146
-0.063094
-0.044075
-0.052121
-0.061997
-0.067118
-0.070044
-0.073153
-0.082114
-0.106072
-0.130029
-0.133138
-0.112107
-0.083029
-0.074067
-0.101134
-0.184162
-0.401061
-0.798098
-1.159107
-1.095098
-0.555047
0.015911
0.205925
0.092904
0.000000
0.041880
0.112838
0.121982
0.077908
0.030907
0.018837
0.034930
0.047001
0.048830
0.048830
0.044989
0.036942
0.037857
0.055962
0.084857
0.104974
0.079920
0.022860
0.005852
0.050841
0.084857
0.061997
0.032004
0.034930
0.043892
0.029993
0.010973
0.014996
0.033833
0.036942
0.017008
-0.002012
-0.013168
-0.029078
-0.034016
-0.009144
0.012985
-0.008047
-0.043160
-0.048098
-0.039137
-0.049012
-0.056145
-0.033102
-0.010059
-0.011156
-0.019020
-0.025055
-0.037125
-0.047001
-0.069129
-0.120154
-0.148135
-0.096013
-0.012070
0.014996
-0.011156
-0.034016
-0.038039
-0.034016
-0.034016
-0.033102
-0.024140
-0.014996
-0.022129
-0.034016
-0.028164
-0.017008
-0.024140
-0.043160
-0.049012
-0.040051
-0.034016
-0.035113
-0.029078
-0.017008
-0.019020
-0.039137
-0.058157
-0.061083
-0.055048
-0.041148
-0.040051
-0.143014
-0.443123
-0.851134
-1.076993
-0.876006
-0.355157
0.089978
0.209949
0.129846
0.079005
0.082846
0.056876
0.004938
-0.022129
-0.023043
-0.032004
-0.048098
-0.047001
-0.024140
-0.005121
-0.006035
-0.016094
-0.017008
-0.017008
-0.025055
-0.035113
-0.038039
-0.029993
-0.016094
-0.006035
-0.008047
-0.014082
-0.014996
-0.013168
-0.016094
-0.029993
-0.052121
-0.066020
-0.057059
-0.036028
-0.024140
-0.029993
-0.040051
-0.046086
-0.056145
-0.079005
-0.097110
-0.091990
-0.083029
-0.093087
-0.101134
-0.076079
-0.044075
-0.050110
-0.084126
-0.096013
-0.074067
-0.059071
-0.089064
-0.152158
-0.189100
-0.173007
-0.132041
-0.091075
-0.050110
-0.020117
-0.013168
-0.026152
-0.042063
-0.046086
-0.038039
-0.039137
-0.072056
-0.103146
-0.082114
-0.025055
-0.006035
-0.048098
-0.097110
-0.099122
-0.065106
-0.038039
-0.042063
-0.054133
-0.044989
-0.032004
-0.051024
-0.088149
-0.093087
-0.059071
-0.029078
-0.036028
-0.103146
-0.286028
-0.629115
-1.004023
-1.102048
-0.737015
-0.149049
0.212875
0.203914
0.064009
0.015911
0.029993
0.006950
-0.047001
-0.074067
-0.056145
-0.028164
-0.017008
-0.014082
-0.004023
0.000914
-0.005121
-0.002012
0.014996
0.025969
0.019934
0.009876
0.007864
0.012985
0.020849
0.026884
0.025969
0.019934
0.008961
-0.008047
-0.019020
-0.008047
0.008961
0.003841
-0.019020
-0.029078
-0.024140
-0.023043
-0.025055
-0.023043
-0.022129
-0.033102
-0.046086
-0.047001
-0.034016
-0.020117
-0.019020
-0.032004
-0.044989
-0.049012
-0.042063
-0.037125
-0.042063
-0.054133
-0.069129
-0.093087
-0.123994
-0.134053
-0.101134
-0.050110
-0.026152
-0.031090
-0.040051
-0.038039
-0.038039
-0.047001
-0.053036
-0.043160
-0.027067
-0.024140
-0.029078
-0.029078
-0.027067
-0.032004
-0.038039
-0.037125
-0.032004
-0.032004
-0.040051
-0.047001
-0.043160
-0.034016
-0.028164
-0.033102
-0.049012
-0.061997
-0.044989
-0.019020
-0.084126
-0.330102
-0.722019
-1.050109
-1.023043
-0.569129
-0.018105
0.225859
0.143928
0.022860
0.020849
0.051939
0.028895
-0.019020
-0.042063
-0.041148
-0.041148
-0.047001
-0.044075
-0.024140
-0.001097
0.004938
-0.010059
-0.029078
-0.027067
-0.010059
-0.012070
-0.034016
-0.039137
-0.012070
0.012985
0.007864
-0.007132
-0.014996
-0.026152
-0.050110
-0.061997
-0.041148
-0.016094
-0.023043
-0.049012
-0.053036
-0.038039
-0.034016
-0.051024
-0.069129
-0.073153
-0.061997
-0.047001
-0.041148
-0.038039
-0.027067
-0.021031
-0.035113
-0.069129
-0.107169
-0.127103
-0.108083
-0.066020
-0.056145
-0.101134
-0.150146
-0.135150
-0.066020
-0.013168
-0.009144
-0.026152
-0.032004
-0.040051
-0.063094
-0.076079
-0.051024
-0.010059
-0.002012
-0.040051
-0.084126
-0.089064
-0.059071
-0.038039
-0.048098
-0.060168
-0.044989
-0.029993
-0.042063
-0.063094
-0.082114
-0.108998
-0.117045
-0.082114
-0.044075
-0.039137
-0.039137
-0.069129
-0.247074
-0.617044
-1.025055
-1.167154
-0.844001
-0.244148
0.166971
0.170995
-0.010059
-0.093087
-0.058157
-0.023043
-0.035113
-0.057059
-0.052121
-0.027067
-0.024140
-0.051024
-0.060168
-0.023043
0.015911
0.018837
0.007864
0.013899
0.017922
0.002012
-0.007132
0.012985
0.033833
0.019934
-0.009144
-0.013168
0.004938
0.012985
-0.003109
-0.018105
-0.010059
0.011887
0.019934
0.002926
-0.021031
-0.031090
-0.025055
-0.014082
-0.006035
-0.007132
-0.017008
-0.029078
-0.023043
0.003841
0.022860
0.005852
-0.038039
-0.067118
-0.055048
-0.013168
0.015911
0.000914
-0.048098
-0.087052
-0.099122
-0.090161
-0.052121
0.002926
0.038954
0.049927
0.053950
0.025969
-0.020117
-0.002012
0.056876
0.030907
-0.057059
-0.060168
0.020849
0.048830
-0.004023
-0.055048
-0.036028
0.039868
0.089978
0.045903
-0.036028
-0.053036
0.004938
0.072970
0.094001
0.034930
-0.060168
-0.070044
0.037857
0.114850
-0.008047
-0.373994
-0.880029
-1.242136
-1.101134
-0.455011
0.179956
0.359912
0.224945
0.137893
0.152889
0.130944
0.068947
0.051939
0.085955
0.113936
0.098939
0.061997
0.061997
0.119971
0.183979
0.191843
0.150878
0.123994
0.135881
0.137893
0.094001
0.069861
0.117959
0.174835
0.170995
0.141002
0.135881
0.145940
0.164960
0.185991
0.173007
0.121982
0.083943
0.075896
0.071873
0.067849
0.073884
0.074982
0.070958
0.077908
0.083943
0.062911
0.032919
0.033833
0.069861
0.102963
0.099854
0.066935
0.042977
0.049927
0.057974
0.025969
-0.019020
-0.024140
-0.011156
-0.020117
-0.010059
0.059985
0.124909
0.116862
0.084857
0.081931
0.055962
-0.019020
-0.043160
0.047001
0.145940
0.141002
0.050841
-0.042063
-0.073153
-0.014996
0.077908
0.097842
0.026884
-0.031090
-0.004023
0.045903
0.017008
-0.070044
-0.083029
0.017008
0.104974
0.097842
0.066935
0.059985
-0.029993
-0.335040
-0.822055
-1.204096
-1.121068
-0.556145
0.058888
0.306876
0.217996
0.071873
0.021946
0.026884
0.017008
-0.012070
-0.028164
-0.024140
-0.025055
-0.029993
-0.012070
0.024872
0.039868
0.015911
-0.018105
-0.016094
0.032004
0.080834
0.073884
0.017922
-0.020117
-0.002012
0.032004
0.027981
0.000000
-0.003109
0.018837
0.020849
-0.006035
-0.017008
0.000000
-0.001097
-0.037125
-0.052121
-0.004023
0.053950
0.047915
-0.006035
-0.035113
-0.022129
-0.011156
-0.020117
-0.018105
0.006950
0.022860
0.002926
-0.029993
-0.044989
-0.048098
-0.055048
-0.056145
-0.038039
-0.035113
-0.078091
-0.116130
-0.076079
0.010973
0.036942
-0.014996
-0.052121
-0.033102
-0.014996
-0.034016
-0.040051
-0.006035
0.013899
-0.019020
-0.057059
-0.047001
-0.011156
0.000914
-0.009144
-0.014082
-0.024140
-0.056145
-0.082114
-0.072056
-0.050110
-0.050110
-0.061083
-0.057059
-0.042063
-0.034016
-0.066020
-0.223116
-0.587052
-1.047000
-1.250000
-0.927030
-0.287125
0.145940
0.150878
0.000914
-0.019020
0.035845
0.023958
-0.020117
-0.018105
-0.020117
-0.066020
-0.098025
-0.081017
-0.047001
-0.002012
0.054865
0.066935
0.005852
-0.051024
-0.043160
-0.004023
0.012985
0.009876
0.015911
0.030907
0.019934
-0.023043
-0.044989
-0.004023
0.044989
0.026884
-0.035113
-0.070044
-0.068032
-0.063094
-0.049012
-0.021031
-0.019020
-0.050110
-0.057059
-0.026152
-0.007132
-0.017008
-0.027067
-0.034016
-0.047001
-0.052121
-0.037125
-0.022129
-0.020117
-0.019020
-0.021031
-0.048098
-0.090161
-0.114118
-0.098025
-0.049012
0.012985
0.052853
0.048830
0.017008
-0.002012
0.013899
0.054865
0.086869
0.079005
0.047001
0.035845
0.064009
0.102963
0.112838
0.085955
0.053950
0.052853
0.080834
0.092904
0.068947
0.053950
0.080834
0.111009
0.098939
0.059985
0.028895
0.022860
0.051939
0.091990
0.071873
-0.075165
-0.375091
-0.762070
-0.982992
-0.767008
-0.217081
0.230980
0.340892
0.272860
0.226957
0.207937
0.170995
0.135881
0.109912
0.069861
0.032919
0.041880
0.085955
0.109912
0.091990
0.064009
0.062911
0.089978
0.118873
0.119971
0.095830
0.075896
0.083943
0.107900
0.120885
0.106986
0.077908
0.062911
0.074982
0.090892
0.074982
0.037857
0.019934
0.025969
0.023958
0.007864
0.000914
0.014996
0.030907
0.035845
0.030907
0.021946
0.009876
-0.001097
-0.002012
0.002926
-0.001097
-0.001097
0.017008
0.030907
0.014996
-0.010059
-0.018105
-0.033102
-0.070044
-0.089064
-0.064009
-0.036028
-0.033102
-0.022129
0.014996
0.038954
0.028895
0.017922
0.024872
0.032004
0.022860
0.004938
0.000914
0.021946
0.033833
0.007864
-0.020117
-0.004023
0.020849
0.008961
-0.020117
-0.034016
-0.034016
-0.019020
0.008961
0.026884
0.019934
0.002012
-0.014082
-0.014082
-0.017008
-0.111009
-0.399049
-0.798098
-1.002011
-0.767008
-0.236101
0.191843
0.294989
0.196964
0.112838
0.098939
0.104974
0.097842
0.079920
0.053950
0.030907
0.026884
0.042977
0.056876
0.053950
0.039868
0.026884
0.026884
0.038954
0.058888
0.079005
0.097842
0.112838
0.113936
0.095830
0.073884
0.068947
0.081931
0.094916
0.089978
0.077908
0.070958
0.067849
0.059985
0.049927
0.051939
0.062911
0.070958
0.073884
0.070958
0.057974
0.037857
0.027981
0.032919
0.041880
0.044989
0.047001
0.052853
0.064009
0.076993
0.079005
0.055962
0.017008
-0.022129
-0.047001
-0.041148
0.005852
0.069861
0.109912
0.111009
0.084857
0.054865
0.037857
0.039868
0.056876
0.079005
0.091990
0.089978
0.077908
0.064923
0.055962
0.052853
0.057974
0.062911
0.064009
0.065838
0.070958
0.066935
0.053950
0.045903
0.045903
0.041880
0.036942
0.044989
0.060900
0.047001
-0.060168
-0.330102
-0.741039
-1.048098
-0.929041
-0.386064
0.161851
0.344001
0.224945
0.094916
0.069861
0.079005
0.067849
0.049927
0.035845
0.032919
0.045903
0.066935
0.073884
0.064009
0.057974
0.070958
0.087966
0.085955
0.071873
0.070958
0.081931
0.088881
0.092904
0.094001
0.074982
0.041880
0.028895
0.047915
0.069861
0.059985
0.026884
0.010973
0.032004
0.058888
0.057974
0.048830
0.056876
0.066935
0.059985
0.043892
0.035845
0.039868
0.047915
0.051939
0.047915
0.045903
0.054865
0.068947
0.071873
0.062911
0.047915
0.033833
0.025969
0.015911
-0.009144
-0.034016
-0.019020
0.029993
0.058888
0.044989
0.026884
0.027981
0.032919
0.036942
0.051939
0.072970
0.085955
0.088881
0.083943
0.071873
0.062911
0.064009
0.056876
0.033833
0.018837
0.032919
0.052853
0.048830
0.032919
0.026884
0.035845
0.041880
0.032004
0.024872
0.044989
0.071873
0.040966
-0.104060
-0.407096
-0.805047
-1.018105
-0.767008
-0.181053
0.274872
0.348939
0.210863
0.116862
0.121982
0.146854
0.138990
0.104974
0.074982
0.062911
0.069861
0.088881
0.102963
0.097842
0.079920
0.070958
0.080834
0.106986
0.127835
0.126006
0.107900
0.096928
0.104974
0.119971
0.124909
0.115947
0.102963
0.092904
0.079920
0.061997
0.061997
0.081931
0.090892
0.076993
0.064009
0.052853
0.034930
0.028895
0.045903
0.059985
0.061997
0.064923
0.062911
0.045903
0.041880
0.064923
0.076993
0.052853
0.025969
0.019934
0.011887
-0.009144
-0.009144
0.026884
0.057974
0.050841
0.014996
-0.019020
-0.029993
-0.014082
0.022860
0.066935
0.099854
0.099854
0.067849
0.035845
0.030907
0.041880
0.049927
0.059985
0.077908
0.073884
0.037857
0.010973
0.020849
0.035845
0.029993
0.026884
0.045903
0.056876
0.039868
0.018837
0.017922
0.027981
0.038954
0.047001
0.040966
0.018837
0.023958
0.069861
0.089978
-0.007132
-0.250000
-0.618142
-0.978054
-1.033101
-0.607169
0.011887
0.330834
0.250914
0.091990
0.076993
0.133870
0.137893
0.088881
0.042977
0.035845
0.054865
0.048830
0.004938
-0.014996
0.033833
0.099854
0.118873
0.092904
0.056876
0.042977
0.067849
0.097842
0.080834
0.052853
0.080834
0.126920
0.096928
0.019934
0.005852
0.061997
0.084857
0.039868
-0.005121
0.005852
0.043892
0.056876
0.024872
-0.024140
-0.042063
-0.008047
0.032919
0.037857
0.027981
0.038954
0.056876
0.053950
0.037857
0.021946
0.004938
0.005852
0.032004
0.045903
0.027981
0.017008
0.032004
0.039868
0.024872
0.004938
-0.014996
-0.036028
-0.047001
-0.033102
0.000914
0.042977
0.066935
0.049927
0.009876
-0.006035
-0.002012
-0.019020
-0.036028
0.002926
0.069861
0.092904
0.080834
0.075896
0.069861
0.055962
0.064009
0.089978
0.087966
0.050841
0.028895
0.042977
0.061997
0.061997
0.059985
0.062911
0.053950
0.041880
0.053950
0.064009
0.006950
-0.167154
-0.498171
-0.896123
-1.037125
-0.668069
-0.044075
0.325896
0.305962
0.173921
0.137893
0.155998
0.145940
0.104974
0.066935
0.055962
0.073884
0.091990
0.083943
0.067849
0.071873
0.088881
0.095830
0.086869
0.079920
0.088881
0.102963
0.096928
0.071873
0.062911
0.083943
0.099854
0.094001
0.090892
0.101865
0.097842
0.066935
0.033833
0.030907
0.057974
0.079920
0.072970
0.050841
0.047001
0.062911
0.065838
0.037857
0.012985
0.028895
0.067849
0.064009
0.011887
-0.023043
-0.001097
0.040966
0.061997
0.064923
0.052853
0.027981
0.013899
0.024872
0.032919
0.008961
-0.036028
-0.064009
-0.042063
0.020849
0.081931
0.098939
0.075896
0.047915
0.036942
0.042977
0.050841
0.051939
0.051939
0.057974
0.069861
0.069861
0.053950
0.035845
0.032004
0.024872
0.002012
-0.004023
0.030907
0.068947
0.065838
0.043892
0.039868
0.044989
0.033833
0.017922
0.017922
0.034930
0.041880
-0.037125
-0.303036
-0.722019
-1.012070
-0.858998
-0.316020
0.184894
0.315837
0.188003
0.088881
0.089978
0.092904
0.064923
0.049927
0.043892
0.021946
0.009876
0.033833
0.062911
0.057974
0.043892
0.059985
0.092904
0.105889
0.095830
0.091990
0.095830
0.083943
0.060900
0.064923
0.094001
0.095830
0.062911
0.047001
0.062911
0.069861
0.054865
0.049927
0.058888
0.059985
0.059985
0.062911
0.052853
0.023958
0.004938
0.012985
0.024872
0.023958
0.018837
0.018837
0.023958
0.032004
0.030907
0.017922
0.011887
0.018837
0.021946
0.015911
0.014996
0.012985
-0.006035
-0.039137
-0.068032
-0.078091
-0.061997
-0.028164
0.005852
0.028895
0.033833
0.019934
0.002012
-0.002012
0.005852
0.018837
0.036942
0.058888
0.064009
0.039868
0.009876
0.002012
0.006950
0.002926
-0.006035
0.000914
0.019934
0.028895
0.015911
0.003841
0.018837
0.052853
0.059985
0.020849
-0.003109
0.033833
0.064923
-0.024140
-0.263167
-0.606071
-0.911119
-0.916057
-0.493050
0.056876
0.294989
0.190929
0.053950
0.036942
0.054865
0.044989
0.037857
0.041880
0.035845
0.029993
0.038954
0.047001
0.043892
0.041880
0.047001
0.051939
0.055962
0.061997
0.062911
0.050841
0.034930
0.039868
0.069861
0.091990
0.077908
0.054865
0.052853
0.056876
0.047001
0.033833
0.029993
0.029993
0.032919
0.033833
0.028895
0.025969
0.038954
0.047915
0.029993
0.007864
0.017008
0.043892
0.052853
0.039868
0.024872
0.013899
0.003841
-0.001097
-0.003109
-0.001097
0.007864
0.013899
0.002012
-0.016094
-0.034016
-0.059071
-0.074067
-0.048098
0.004938
0.034930
0.024872
0.005852
0.003841
0.019934
0.034930
0.030907
0.011887
0.004938
0.025969
0.055962
0.062911
0.042977
0.018837
0.015911
0.028895
0.032919
0.017922
0.004938
0.007864
0.015911
0.019934
0.014996
-0.001097
-0.019020
-0.011156
0.014996
-0.001097
-0.129115
-0.434162
-0.863021
-1.128017
-0.905998
-0.297001
0.191843
0.250914
0.084857
0.011887
0.047915
0.051939
0.005852
-0.018105
-0.005121
0.012985
0.020849
0.027981
0.036942
0.047001
0.057974
0.066935
0.068947
0.064009
0.059985
0.064009
0.077908
0.089978
0.088881
0.068947
0.045903
0.043892
0.058888
0.059985
0.039868
0.029993
0.048830
0.064009
0.050841
0.035845
0.047001
0.055962
0.033833
0.011887
0.025969
0.049927
0.042977
0.018837
0.008961
0.004938
-0.011156
-0.023043
-0.018105
-0.017008
-0.033102
-0.042063
-0.020117
0.015911
0.015911
-0.029078
-0.081017
-0.102048
-0.095099
-0.081017
-0.055048
-0.020117
-0.003109
-0.014082
-0.028164
-0.026152
-0.013168
0.002012
0.011887
0.007864
-0.010059
-0.020117
-0.006035
0.008961
-0.011156
-0.067118
-0.112107
-0.097110
-0.033102
0.010973
0.008961
-0.002012
0.007864
0.021946
0.021946
0.007864
-0.005121
0.004938
0.002926
-0.114118
-0.418069
-0.832114
-1.117044
-1.000000
-0.469093
0.088881
0.282919
0.152889
0.012985
-0.004023
0.017008
0.012985
0.007864
0.007864
0.002012
-0.005121
0.002012
0.018837
0.033833
0.048830
0.059985
0.050841
0.020849
0.005852
0.026884
0.047915
0.044989
0.038954
0.048830
0.060900
0.060900
0.052853
0.042977
0.035845
0.038954
0.048830
0.054865
0.038954
0.004938
-0.009144
0.008961
0.021946
0.008961
0.010973
0.047001
0.055962
0.004938
-0.040051
-0.021031
0.020849
0.029993
0.017008
0.007864
-0.004023
-0.009144
0.015911
0.051939
0.052853
0.018837
-0.019020
-0.051024
-0.069129
-0.053036
-0.003109
0.045903
0.062911
0.052853
0.037857
0.032004
0.033833
0.033833
0.023958
0.017922
0.026884
0.042977
0.054865
0.056876
0.044989
0.024872
0.014996
0.019934
0.032004
0.047915
0.056876
0.047001
0.028895
0.026884
0.028895
0.014996
0.011887
0.047915
0.064009
-0.046086
-0.337052
-0.745062
-1.044989
-0.938003
-0.405084
0.138990
0.298829
0.161851
0.049927
0.062911
0.085955
0.065838
0.042977
0.038954
0.041880
0.042977
0.040966
0.036942
0.044989
0.061997
0.069861
0.064923
0.066935
0.080834
0.085955
0.071873
0.057974
0.059985
0.069861
0.070958
0.069861
0.079005
0.079920
0.053950
0.028895
0.044989
0.082846
0.091990
0.069861
0.052853
0.053950
0.054865
0.039868
0.025969
0.034930
0.050841
0.041880
0.018837
0.019934
0.039868
0.042977
0.028895
0.030907
0.047001
0.045903
0.029993
0.017008
0.002012
-0.026152
-0.053036
-0.064009
-0.058157
-0.029993
0.018837
0.054865
0.045903
0.015911
0.011887
0.032919
0.045903
0.045903
0.044989
0.037857
0.019934
0.017008
0.032919
0.039868
0.029993
0.024872
0.032919
0.041880
0.050841
0.058888
0.048830
0.019934
0.004938
0.020849
0.027981
0.007864
0.005852
0.044989
0.026884
-0.179042
-0.578091
-0.972019
-1.056145
-0.679041
-0.087052
0.269934
0.235004
0.057974
-0.008047
0.026884
0.051939
0.038954
0.014996
0.002926
0.021946
0.055962
0.068947
0.057974
0.053950
0.064923
0.070958
0.079005
0.097842
0.102963
0.073884
0.049927
0.068947
0.103877
0.102963
0.068947
0.042977
0.051939
0.079005
0.098939
0.098939
0.076993
0.052853
0.053950
0.077908
0.084857
0.059985
0.041880
0.047001
0.048830
0.041880
0.044989
0.052853
0.048830
0.045903
0.056876
0.065838
0.050841
0.026884
0.022860
0.042977
0.062911
0.062911
0.042977
0.014996
-0.012070
-0.029078
-0.021031
0.013899
0.052853
0.066935
0.053950
0.050841
0.073884
0.088881
0.059985
0.019934
0.020849
0.051939
0.067849
0.062911
0.059985
0.057974
0.047915
0.040966
0.045903
0.053950
0.054865
0.055962
0.057974
0.051939
0.041880
0.042977
0.052853
0.055962
0.056876
0.060900
0.013899
-0.206108
-0.631126
-1.027066
-1.029078
-0.557059
0.021946
0.295903
0.244879
0.127835
0.091990
0.089978
0.077908
0.072970
0.074982
0.069861
0.064923
0.070958
0.082846
0.089978
0.094916
0.097842
0.102963
0.114850
0.127835
0.126920
0.114850
0.112838
0.124909
0.130944
0.122897
0.112838
0.111009
0.112838
0.112838
0.111924
0.109912
0.102963
0.094916
0.094001
0.103877
0.113936
0.108998
0.090892
0.073884
0.073884
0.092904
0.111924
0.114850
0.103877
0.095830
0.101865
0.117959
0.122897
0.095830
0.054865
0.049927
0.082846
0.094001
0.055962
0.019934
0.026884
0.066935
0.108998
0.134967
0.130944
0.101865
0.068947
0.048830
0.051939
0.072970
0.100951
0.124909
0.150878
0.178859
0.167886
0.112838
0.092904
0.151975
0.201902
0.174835
0.128932
0.126006
0.131858
0.126006
0.136979
0.155998
0.142831
0.106986
0.100951
0.135881
0.155998
0.081931
-0.138076
-0.506035
-0.899049
-1.021031
-0.657096
-0.027067
0.376006
0.362838
0.191843
0.123994
0.160936
0.196964
0.191843
0.170995
0.162948
0.161851
0.152889
0.155998
0.193855
0.229883
0.223848
0.203914
0.217996
0.252926
0.277981
0.287857
0.277981
0.235918
0.205011
0.233906
0.276884
0.259876
0.209949
0.195867
0.195867
0.167886
0.154901
0.202999
0.260973
0.257864
0.203914
0.163862
0.161851
0.183979
0.202999
0.197879
0.170995
0.154901
0.167886
0.182882
0.173007
0.155998
0.156913
0.155998
0.137893
0.120885
0.109912
0.085955
0.052853
0.038954
0.040966
0.058888
0.117959
0.191843
0.205925
0.145940
0.085955
0.084857
0.131858
0.166971
0.154901
0.132955
0.155998
0.179956
0.123994
0.032004
0.030907
0.111924
0.136979
0.081931
0.069861
0.131858
0.160936
0.121982
0.086869
0.067849
0.019934
-0.026152
0.007864
0.095830
0.111009
-0.061997
-0.460132
-0.941112
-1.152158
-0.828090
-0.170080
0.300841
0.338881
0.174835
0.105889
0.138990
0.129846
0.056876
0.018837
0.051939
0.096928
0.115947
0.138990
0.167886
0.159839
0.113936
0.092904
0.129846
0.174835
0.174835
0.142831
0.120885
0.104974
0.071873
0.053950
0.098939
0.162948
0.163862
0.107900
0.069861
0.058888
0.037857
0.026884
0.066935
0.111924
0.090892
0.038954
0.043892
0.094001
0.111009
0.083943
0.068947
0.082846
0.081931
0.047915
0.027981
0.055962
0.088881
0.070958
0.029993
0.023958
0.043892
0.034930
-0.016094
-0.064009
-0.080102
-0.058157
-0.005121
0.053950
0.090892
0.109912
0.114850
0.068947
-0.014996
-0.038039
0.037857
0.112838
0.112838
0.085955
0.082846
0.070958
0.026884
-0.008047
-0.002012
0.021946
0.038954
0.058888
0.085955
0.091990
0.059985
0.015911
-0.002012
0.012985
0.040966
0.050841
0.026884
-0.058157
-0.285113
-0.689100
-1.061997
-1.046086
-0.573153
-0.010059
0.267922
0.247988
0.133870
0.066935
0.068947
0.094916
0.086869
0.047001
0.032919
0.051939
0.049927
0.025969
0.030907
0.055962
0.054865
0.042977
0.064923
0.098939
0.106986
0.097842
0.094916
0.084857
0.052853
0.033833
0.066935
0.122897
0.128932
0.075896
0.029993
0.022860
0.032919
0.045903
0.054865
0.033833
-0.002012
-0.002012
0.024872
0.032004
0.024872
0.045903
0.079920
0.086869
0.065838
0.047915
0.047915
0.038954
0.000914
-0.031090
-0.022129
-0.004023
-0.023043
-0.061997
-0.076079
-0.060168
-0.014996
0.044989
0.082846
0.073884
0.049927
0.033833
0.010973
-0.011156
0.005852
0.039868
0.026884
-0.018105
-0.012070
0.041880
0.066935
0.041880
0.004938
-0.010059
0.006950
0.044989
0.060900
0.024872
-0.027067
-0.043160
-0.022129
0.002012
0.020849
0.040966
0.044989
0.003841
-0.090161
-0.271031
-0.597110
-0.988112
-1.128017
-0.785113
-0.183065
0.201902
0.212875
0.107900
0.104974
0.126006
0.047001
-0.053036
-0.038039
0.049927
0.064923
-0.007132
-0.043160
0.011887
0.069861
0.066935
0.038954
0.028895
0.030907
0.038954
0.045903
0.024872
-0.016094
-0.013168
0.055962
0.117959
0.115947
0.072970
0.052853
0.070958
0.091990
0.082846
0.064923
0.066935
0.068947
