---
Mammal:            rabbit
Fs:                1000
Integration_level: electrocardiogram

Channels:

    - type:   electrography
      name:   Data
      unit:   mV
      enable: yes

---

-0.020000
-0.030000
-0.030000
-0.030000
-0.040000
-0.040000
-0.020000
0.010000
0.020000
-0.000000
-0.010000
0.000000
0.020000
0.020000
0.010000
-0.000000
-0.010000
-0.010000
-0.010000
-0.030000
-0.050000
-0.050000
-0.030000
-0.010000
0.010000
0.010000
-0.020000
-0.050000
-0.050000
-0.050000
-0.050000
-0.070000
-0.090000
-0.080000
-0.040000
-0.000000
0.020000
0.030000
0.010000
-0.010000
-0.010000
-0.010000
-0.010000
-0.030000
-0.060000
-0.070000
-0.070000
-0.040000
-0.020000
-0.040000
-0.060000
-0.060000
-0.050000
-0.030000
-0.030000
-0.020000
-0.010000
0.000000
-0.010000
-0.040000
-0.060000
-0.060000
-0.060000
-0.070000
-0.080000
-0.090000
-0.070000
-0.060000
-0.060000
-0.050000
-0.040000
-0.020000
0.040000
0.130000
0.220000
0.290000
0.300000
0.260000
0.220000
0.190000
0.150000
0.110000
0.070000
0.040000
0.010000
-0.010000
-0.030000
-0.030000
-0.020000
-0.020000
-0.030000
-0.050000
-0.060000
-0.050000
-0.030000
-0.030000
-0.050000
-0.070000
-0.070000
-0.050000
-0.030000
-0.020000
-0.030000
-0.040000
-0.060000
-0.060000
-0.060000
-0.060000
-0.070000
-0.060000
-0.040000
-0.020000
-0.020000
-0.020000
-0.020000
-0.010000
-0.030000
-0.050000
-0.050000
-0.030000
-0.020000
-0.020000
-0.030000
-0.040000
-0.060000
-0.070000
-0.070000
-0.070000
-0.080000
-0.060000
-0.040000
-0.030000
-0.030000
-0.030000
-0.030000
-0.030000
-0.030000
-0.040000
-0.030000
-0.030000
-0.030000
-0.040000
-0.040000
-0.040000
-0.030000
-0.030000
-0.030000
-0.040000
-0.070000
-0.070000
-0.070000
-0.060000
-0.050000
-0.030000
-0.010000
-0.010000
-0.020000
-0.020000
-0.030000
-0.040000
-0.050000
-0.040000
-0.030000
-0.020000
-0.030000
-0.040000
-0.040000
-0.020000
-0.010000
-0.010000
-0.020000
-0.010000
-0.000000
-0.010000
-0.010000
-0.000000
0.020000
0.040000
0.020000
-0.020000
-0.060000
-0.050000
-0.030000
-0.020000
-0.020000
-0.020000
-0.010000
-0.020000
-0.010000
-0.010000
-0.030000
-0.060000
-0.080000
-0.070000
-0.060000
-0.050000
-0.040000
-0.030000
-0.030000
-0.030000
-0.030000
-0.020000
-0.010000
-0.030000
-0.050000
-0.040000
-0.030000
-0.030000
-0.040000
-0.030000
-0.000000
0.000000
-0.010000
-0.030000
-0.040000
-0.040000
-0.040000
-0.030000
-0.030000
-0.030000
-0.040000
-0.050000
-0.040000
-0.020000
-0.020000
-0.010000
0.010000
0.030000
0.040000
0.030000
0.020000
0.010000
0.000000
0.000000
0.010000
0.010000
0.000000
-0.010000
-0.030000
-0.030000
-0.030000
-0.020000
-0.020000
-0.030000
-0.040000
-0.040000
-0.020000
-0.020000
-0.040000
-0.070000
-0.070000
-0.030000
0.000000
0.010000
-0.010000
-0.030000
-0.050000
-0.050000
-0.070000
-0.100000
-0.100000
-0.060000
-0.010000
-0.000000
-0.020000
-0.030000
-0.050000
-0.070000
-0.070000
-0.050000
-0.030000
-0.030000
-0.030000
-0.030000
-0.020000
-0.020000
-0.020000
-0.030000
-0.030000
-0.040000
-0.030000
-0.030000
-0.030000
-0.030000
-0.030000
-0.020000
-0.020000
-0.030000
-0.040000
-0.050000
-0.050000
-0.060000
-0.050000
0.000000
0.080000
0.160000
0.220000
0.250000
0.280000
0.290000
0.240000
0.170000
0.110000
0.080000
0.050000
0.030000
0.020000
0.010000
-0.010000
-0.020000
-0.030000
-0.030000
-0.030000
-0.030000
-0.020000
-0.020000
-0.030000
-0.030000
-0.030000
-0.040000
-0.050000
-0.040000
-0.030000
-0.030000
-0.020000
-0.010000
-0.030000
-0.050000
-0.060000
-0.050000
-0.040000
-0.030000
-0.040000
-0.040000
-0.050000
-0.060000
-0.070000
-0.070000
-0.060000
-0.060000
-0.080000
-0.070000
-0.050000
-0.030000
-0.030000
-0.050000
-0.060000
-0.050000
-0.050000
-0.050000
-0.040000
-0.040000
-0.040000
-0.050000
-0.050000
-0.040000
-0.050000
-0.050000
-0.050000
-0.050000
-0.040000
-0.030000
-0.020000
-0.010000
-0.010000
-0.030000
-0.030000
-0.010000
0.010000
0.000000
-0.020000
-0.050000
-0.050000
-0.030000
0.000000
0.030000
0.030000
0.010000
-0.010000
-0.030000
-0.030000
-0.030000
-0.030000
-0.040000
-0.030000
-0.020000
-0.010000
-0.000000
-0.000000
-0.010000
-0.030000
-0.040000
-0.040000
-0.010000
0.000000
-0.010000
-0.020000
-0.010000
0.000000
0.010000
-0.000000
-0.000000
-0.020000
-0.050000
-0.060000
-0.030000
-0.010000
-0.010000
-0.010000
-0.000000
-0.000000
-0.020000
-0.040000
-0.030000
-0.020000
-0.000000
0.000000
0.000000
0.010000
-0.000000
-0.020000
-0.040000
-0.030000
0.000000
0.030000
0.030000
0.000000
-0.020000
-0.030000
-0.030000
-0.040000
-0.040000
-0.050000
-0.040000
-0.010000
0.020000
0.030000
0.000000
-0.020000
-0.030000
-0.030000
-0.020000
-0.020000
-0.010000
-0.010000
-0.020000
-0.020000
-0.020000
-0.010000
-0.020000
-0.030000
-0.030000
-0.000000
0.020000
0.050000
0.070000
0.070000
0.040000
0.000000
-0.010000
-0.020000
-0.020000
-0.020000
-0.010000
-0.000000
-0.020000
-0.030000
-0.020000
-0.000000
0.000000
-0.000000
-0.010000
-0.020000
-0.020000
-0.020000
-0.010000
-0.000000
-0.010000
-0.020000
-0.020000
-0.010000
-0.010000
-0.020000
-0.030000
-0.020000
-0.000000
0.010000
0.000000
0.000000
0.010000
0.010000
0.010000
-0.010000
-0.020000
-0.050000
-0.060000
-0.050000
-0.030000
-0.020000
-0.020000
-0.020000
-0.010000
-0.010000
-0.020000
-0.000000
0.020000
0.020000
0.000000
-0.030000
-0.040000
-0.050000
-0.060000
-0.060000
-0.050000
-0.020000
0.000000
0.030000
0.090000
0.170000
0.240000
0.270000
0.260000
0.240000
0.210000
0.180000
0.140000
0.110000
0.080000
0.040000
-0.000000
-0.040000
-0.060000
-0.040000
-0.030000
-0.040000
-0.050000
-0.050000
-0.050000
-0.060000
-0.050000
-0.020000
0.020000
0.030000
0.010000
-0.040000
-0.070000
-0.060000
-0.050000
-0.040000
-0.050000
-0.030000
-0.010000
0.000000
-0.020000
-0.030000
-0.030000
-0.010000
-0.010000
-0.010000
0.000000
0.010000
0.010000
-0.010000
-0.020000
-0.020000
-0.020000
-0.030000
-0.040000
-0.030000
-0.030000
-0.010000
0.010000
0.020000
0.000000
-0.020000
-0.030000
-0.020000
-0.000000
0.020000
0.030000
0.020000
-0.010000
-0.020000
-0.010000
-0.000000
-0.010000
-0.030000
-0.040000
-0.030000
-0.010000
0.020000
0.050000
0.050000
0.030000
0.010000
0.020000
0.030000
0.020000
-0.020000
-0.040000
-0.040000
-0.000000
0.030000
0.040000
0.040000
0.030000
0.020000
0.000000
-0.010000
-0.020000
-0.020000
-0.020000
0.000000
0.030000
0.020000
0.000000
-0.000000
0.010000
0.010000
0.000000
-0.010000
-0.010000
-0.010000
-0.010000
-0.020000
-0.010000
-0.000000
0.020000
0.030000
0.010000
-0.020000
-0.030000
-0.020000
0.000000
0.020000
0.020000
0.010000
-0.010000
-0.010000
0.000000
0.020000
0.030000
0.020000
0.000000
-0.010000
-0.010000
-0.010000
-0.010000
0.000000
-0.000000
-0.020000
-0.030000
-0.020000
0.000000
0.020000
0.030000
0.040000
0.020000
-0.010000
-0.030000
-0.020000
0.000000
0.020000
0.030000
0.020000
0.010000
-0.000000
-0.010000
-0.010000
0.010000
0.050000
0.060000
0.050000
0.030000
0.030000
0.050000
0.070000
0.080000
0.080000
0.060000
0.030000
0.010000
0.010000
0.000000
-0.020000
-0.030000
-0.020000
-0.010000
-0.000000
-0.000000
-0.010000
-0.030000
-0.050000
-0.060000
-0.050000
-0.020000
-0.000000
-0.010000
-0.030000
-0.040000
-0.020000
0.000000
0.010000
0.010000
-0.010000
-0.010000
-0.010000
0.010000
0.020000
0.030000
0.030000
0.020000
0.010000
0.020000
0.030000
0.030000
0.030000
0.020000
0.020000
0.020000
0.020000
0.020000
0.010000
0.010000
-0.000000
-0.020000
-0.020000
-0.020000
-0.020000
-0.020000
-0.020000
-0.000000
0.010000
0.010000
-0.000000
-0.010000
-0.020000
-0.010000
0.020000
0.050000
0.090000
0.140000
0.190000
0.230000
0.250000
0.230000
0.190000
0.150000
0.100000
0.070000
0.040000
0.030000
0.030000
0.030000
0.030000
0.020000
0.000000
-0.020000
-0.020000
0.010000
0.040000
0.040000
0.000000
-0.030000
-0.040000
-0.040000
-0.040000
-0.040000
-0.030000
-0.020000
-0.030000
-0.040000
-0.030000
-0.010000
0.000000
-0.000000
-0.010000
-0.000000
0.000000
-0.010000
-0.020000
-0.030000
-0.020000
-0.010000
-0.000000
0.010000
0.000000
0.010000
0.040000
0.060000
0.030000
0.000000
-0.000000
0.000000
-0.000000
-0.010000
-0.010000
-0.000000
-0.020000
-0.040000
-0.050000
-0.040000
-0.020000
-0.010000
0.000000
0.010000
0.010000
0.020000
0.030000
0.030000
0.040000
0.050000
0.050000
0.030000
0.020000
0.010000
-0.000000
-0.010000
0.010000
0.030000
0.020000
0.010000
0.010000
0.010000
0.010000
0.000000
0.020000
0.030000
0.030000
0.020000
0.000000
-0.000000
0.010000
0.030000
0.040000
0.020000
-0.010000
-0.020000
-0.010000
0.010000
0.010000
-0.010000
-0.010000
0.010000
0.020000
0.020000
0.000000
-0.000000
0.000000
0.020000
0.030000
0.030000
0.030000
0.020000
0.030000
0.040000
0.040000
0.020000
-0.000000
-0.010000
0.000000
0.020000
0.020000
-0.000000
-0.020000
-0.020000
-0.020000
-0.030000
-0.020000
0.020000
0.060000
0.070000
0.050000
0.030000
0.010000
0.000000
-0.010000
-0.000000
0.010000
0.020000
0.010000
-0.000000
-0.010000
-0.000000
-0.000000
-0.000000
-0.010000
-0.020000
-0.020000
0.000000
0.030000
0.040000
0.020000
0.000000
-0.010000
0.010000
0.050000
0.090000
0.090000
0.050000
0.020000
0.020000
0.030000
0.040000
0.040000
0.030000
0.010000
-0.010000
-0.020000
-0.000000
0.030000
0.040000
0.010000
-0.010000
-0.020000
-0.000000
0.010000
0.010000
0.000000
0.000000
0.000000
-0.000000
-0.010000
-0.010000
-0.010000
-0.000000
0.020000
0.030000
0.020000
-0.000000
-0.000000
0.020000
0.030000
0.020000
0.010000
0.020000
0.020000
0.010000
-0.010000
-0.010000
-0.000000
0.000000
-0.010000
-0.020000
-0.020000
-0.010000
-0.000000
-0.000000
-0.010000
-0.020000
-0.020000
-0.020000
-0.010000
0.000000
-0.000000
-0.020000
-0.040000
-0.040000
-0.040000
-0.040000
-0.020000
0.000000
0.010000
0.020000
0.080000
0.170000
0.230000
0.260000
0.270000
0.270000
0.240000
0.190000
0.150000
0.130000
0.100000
0.070000
0.040000
0.000000
-0.010000
-0.010000
-0.020000
-0.030000
-0.040000
-0.040000
-0.040000
-0.040000
-0.040000
-0.030000
-0.020000
-0.030000
-0.030000
-0.020000
-0.020000
-0.010000
0.010000
0.010000
-0.010000
-0.040000
-0.060000
-0.050000
-0.040000
-0.030000
-0.020000
-0.020000
-0.020000
-0.020000
-0.020000
-0.010000
-0.010000
-0.020000
-0.020000
-0.020000
-0.010000
-0.010000
-0.010000
0.000000
-0.010000
-0.030000
-0.030000
-0.020000
0.010000
0.030000
0.040000
0.030000
-0.000000
-0.030000
-0.040000
-0.030000
-0.020000
-0.030000
-0.040000
-0.030000
-0.000000
0.020000
0.010000
-0.030000
-0.060000
-0.040000
-0.020000
0.000000
0.010000
0.000000
-0.010000
-0.020000
-0.010000
0.010000
0.020000
0.020000
0.020000
0.010000
-0.000000
-0.020000
-0.020000
-0.020000
-0.010000
-0.010000
-0.000000
0.000000
0.000000
-0.010000
-0.020000
-0.020000
-0.010000
-0.020000
-0.010000
-0.010000
-0.010000
-0.030000
-0.040000
-0.040000
-0.020000
-0.010000
0.010000
0.030000
0.030000
0.020000
0.000000
-0.000000
-0.000000
-0.000000
-0.010000
-0.000000
0.010000
0.020000
0.010000
-0.010000
-0.040000
-0.050000
-0.040000
-0.030000
-0.030000
-0.030000
-0.030000
-0.010000
-0.010000
-0.030000
-0.050000
-0.040000
-0.010000
0.010000
0.010000
-0.020000
-0.040000
-0.040000
-0.020000
-0.000000
0.010000
0.010000
0.000000
-0.010000
-0.010000
-0.020000
-0.030000
-0.030000
-0.010000
0.010000
0.010000
0.010000
0.000000
-0.000000
0.010000
0.040000
0.060000
0.040000
0.010000
-0.000000
-0.000000
0.000000
0.010000
0.010000
-0.020000
-0.040000
-0.040000
-0.020000
-0.010000
-0.010000
-0.010000
-0.020000
-0.030000
-0.050000
-0.050000
-0.060000
-0.050000
-0.030000
-0.010000
-0.010000
-0.030000
-0.030000
-0.030000
-0.040000
-0.050000
-0.030000
0.010000
0.020000
0.010000
-0.020000
-0.040000
-0.050000
-0.040000
-0.040000
-0.050000
-0.060000
-0.040000
-0.000000
0.010000
0.000000
0.000000
-0.010000
-0.030000
-0.040000
-0.050000
-0.050000
-0.060000
-0.050000
-0.040000
-0.020000
-0.010000
-0.000000
0.000000
-0.010000
-0.030000
-0.040000
-0.060000
-0.070000
-0.070000
-0.040000
0.010000
0.070000
0.110000
0.170000
0.220000
0.260000
0.270000
0.250000
0.200000
0.160000
0.130000
0.100000
0.070000
0.030000
-0.000000
-0.010000
-0.010000
-0.020000
-0.040000
-0.060000
-0.060000
-0.070000
-0.080000
-0.080000
-0.070000
-0.060000
-0.030000
-0.020000
-0.030000
-0.050000
-0.060000
-0.040000
-0.030000
-0.010000
0.000000
-0.000000
-0.020000
-0.040000
-0.040000
-0.040000
-0.050000
-0.050000
-0.040000
-0.040000
-0.060000
-0.070000
-0.050000
-0.030000
-0.010000
-0.000000
-0.010000
-0.030000
-0.060000
-0.070000
-0.080000
-0.070000
-0.050000
-0.040000
-0.040000
-0.040000
-0.060000
-0.070000
-0.050000
-0.020000
0.010000
0.000000
-0.010000
-0.010000
0.020000
0.020000
0.010000
-0.020000
-0.030000
-0.030000
-0.030000
-0.020000
-0.010000
-0.010000
-0.010000
-0.020000
-0.020000
-0.020000
-0.030000
-0.050000
-0.050000
-0.040000
-0.040000
-0.040000
-0.030000
-0.010000
-0.010000
-0.020000
-0.040000
-0.040000
-0.030000
-0.010000
0.000000
0.020000
0.030000
0.030000
0.020000
-0.000000
-0.010000
-0.010000
0.010000
0.010000
-0.010000
-0.040000
-0.040000
-0.020000
0.000000
0.020000
0.000000
-0.020000
-0.040000
-0.050000
-0.050000
-0.040000
-0.020000
0.000000
0.010000
0.020000
0.010000
-0.010000
-0.040000
-0.050000
-0.040000
-0.040000
-0.060000
-0.050000
-0.040000
-0.020000
-0.010000
-0.020000
-0.040000
-0.050000
-0.040000
-0.030000
-0.030000
-0.050000
-0.060000
-0.070000
-0.060000
-0.040000
-0.020000
-0.000000
0.010000
0.000000
-0.010000
-0.020000
-0.010000
0.000000
0.010000
0.020000
0.030000
0.030000
0.020000
0.020000
0.030000
0.010000
-0.010000
-0.040000
-0.060000
-0.060000
-0.050000
-0.020000
0.020000
0.030000
0.020000
-0.010000
-0.030000
-0.040000
-0.040000
-0.040000
-0.040000
-0.040000
-0.030000
-0.010000
0.000000
-0.010000
-0.050000
-0.070000
-0.060000
-0.030000
-0.010000
0.000000
0.010000
0.010000
0.030000
0.060000
0.050000
0.010000
-0.030000
-0.040000
-0.040000
-0.040000
-0.050000
-0.050000
-0.030000
-0.010000
-0.000000
-0.010000
-0.040000
-0.040000
-0.020000
-0.030000
-0.060000
-0.070000
-0.050000
-0.030000
-0.030000
-0.030000
-0.040000
-0.050000
-0.060000
-0.040000
-0.020000
-0.020000
-0.040000
-0.050000
-0.030000
0.020000
0.090000
0.150000
0.220000
0.280000
0.300000
0.280000
0.210000
0.150000
0.110000
0.090000
0.060000
0.050000
0.040000
0.040000
0.030000
0.030000
0.030000
0.020000
0.010000
-0.010000
-0.030000
-0.050000
-0.050000
-0.030000
-0.010000
-0.010000
-0.030000
-0.060000
-0.080000
-0.070000
-0.040000
-0.010000
-0.010000
-0.030000
-0.050000
-0.050000
-0.060000
-0.060000
-0.060000
-0.040000
-0.030000
-0.030000
-0.040000
-0.040000
-0.030000
-0.010000
0.000000
-0.010000
-0.030000
-0.040000
-0.040000
-0.030000
-0.020000
-0.020000
-0.020000
-0.010000
-0.020000
-0.020000
-0.030000
-0.050000
-0.070000
-0.090000
-0.080000
-0.060000
-0.040000
-0.040000
-0.050000
-0.050000
-0.050000
-0.030000
-0.010000
-0.000000
0.010000
0.010000
0.000000
-0.030000
-0.040000
-0.020000
0.000000
0.000000
-0.010000
-0.010000
-0.010000
-0.020000
-0.030000
-0.030000
-0.030000
-0.020000
-0.010000
-0.030000
-0.050000
-0.060000
-0.020000
0.020000
0.010000
-0.010000
-0.010000
0.000000
0.010000
0.010000
0.000000
0.000000
0.000000
0.010000
0.010000
0.000000
-0.010000
-0.010000
0.000000
0.010000
0.000000
-0.020000
-0.030000
-0.030000
-0.030000
-0.040000
-0.060000
-0.060000
-0.050000
-0.040000
-0.030000
-0.010000
0.010000
0.000000
-0.030000
-0.050000
-0.050000
-0.030000
-0.030000
-0.030000
-0.000000
0.020000
0.020000
-0.000000
-0.030000
-0.050000
-0.040000
-0.020000
-0.020000
-0.020000
-0.020000
-0.020000
-0.010000
-0.010000
-0.010000
-0.010000
-0.010000
-0.010000
-0.010000
-0.020000
-0.020000
-0.020000
-0.020000
-0.000000
0.010000
0.020000
0.020000
0.020000
0.030000
0.040000
0.050000
0.030000
0.020000
0.010000
0.020000
0.030000
0.020000
0.010000
-0.010000
-0.020000
-0.010000
0.000000
0.010000
0.000000
-0.010000
-0.030000
-0.040000
-0.030000
-0.020000
-0.010000
-0.000000
-0.010000
-0.010000
-0.020000
-0.040000
-0.060000
-0.060000
-0.030000
-0.010000
-0.000000
-0.010000
-0.010000
-0.000000
-0.000000
-0.010000
-0.020000
-0.010000
-0.010000
-0.030000
-0.060000
-0.060000
-0.040000
-0.030000
-0.030000
-0.030000
-0.040000
-0.050000
-0.050000
-0.040000
-0.040000
-0.050000
-0.060000
-0.040000
-0.020000
-0.010000
-0.010000
-0.020000
-0.030000
-0.030000
-0.020000
-0.000000
0.030000
0.060000
0.110000
0.170000
0.210000
0.250000
0.270000
0.280000
0.260000
0.230000
0.180000
0.140000
0.100000
0.080000
0.070000
0.050000
0.020000
-0.010000
-0.020000
-0.010000
0.010000
0.020000
0.010000
-0.000000
-0.030000
-0.050000
-0.040000
-0.040000
-0.050000
-0.050000
-0.030000
-0.000000
-0.000000
-0.010000
-0.010000
-0.010000
-0.020000
-0.020000
-0.020000
-0.010000
-0.010000
-0.020000
-0.010000
0.000000
0.000000
-0.020000
-0.030000
-0.020000
-0.010000
-0.020000
-0.020000
-0.030000
-0.050000
-0.060000
-0.050000
-0.030000
-0.010000
-0.010000
-0.030000
-0.030000
-0.010000
-0.000000
-0.020000
-0.050000
-0.050000
-0.020000
0.010000
0.010000
-0.000000
0.000000
0.010000
0.010000
0.000000
0.010000
0.010000
-0.010000
-0.030000
-0.020000
-0.000000
0.010000
0.000000
-0.010000
-0.010000
0.010000
0.020000
0.020000
0.010000
0.010000
0.010000
0.030000
0.050000
0.060000
0.070000
0.070000
0.050000
0.000000
-0.040000
-0.030000
0.020000
0.050000
0.040000
0.020000
0.010000
0.030000
0.040000
0.020000
0.010000
0.000000
-0.010000
-0.020000
-0.000000
0.030000
0.030000
0.010000
-0.000000
0.000000
0.010000
0.000000
0.010000
0.020000
0.030000
0.020000
0.010000
0.010000
-0.000000
-0.010000
-0.020000
-0.020000
-0.010000
-0.000000
0.000000
0.020000
0.030000
0.030000
0.010000
0.000000
0.010000
0.020000
0.020000
0.020000
0.020000
0.020000
0.030000
0.030000
0.020000
0.020000
0.020000
0.030000
0.020000
0.010000
-0.000000
0.000000
0.010000
-0.000000
-0.010000
0.010000
0.040000
0.050000
0.040000
0.030000
0.040000
0.050000
0.050000
0.060000
0.070000
0.060000
0.030000
0.000000
0.010000
0.030000
0.040000
0.030000
0.010000
0.010000
0.020000
0.030000
0.030000
0.020000
0.010000
0.010000
0.010000
0.010000
0.010000
0.020000
0.010000
0.000000
-0.010000
-0.020000
-0.020000
-0.010000
0.010000
0.020000
0.020000
0.020000
0.030000
0.030000
0.020000
0.010000
0.010000
0.030000
0.040000
0.030000
0.020000
0.020000
0.020000
0.020000
0.010000
0.020000
0.030000
0.030000
0.020000
0.010000
0.000000
-0.000000
0.000000
0.010000
0.010000
-0.000000
-0.010000
-0.030000
-0.030000
-0.010000
0.010000
0.030000
0.080000
0.160000
0.250000
0.300000
0.310000
0.290000
0.240000
0.200000
0.160000
0.130000
0.110000
0.080000
0.050000
0.040000
0.050000
0.040000
0.020000
-0.010000
-0.020000
-0.010000
0.000000
0.010000
0.010000
0.010000
0.010000
0.010000
0.010000
0.040000
0.060000
0.060000
0.040000
0.030000
0.010000
-0.020000
-0.040000
-0.030000
-0.020000
0.000000
0.020000
0.040000
0.040000
0.020000
0.010000
0.010000
0.010000
0.010000
0.010000
0.020000
0.010000
0.000000
0.010000
0.010000
0.010000
-0.000000
-0.020000
-0.040000
-0.020000
0.020000
0.060000
0.050000
0.010000
-0.010000
-0.010000
0.010000
0.020000
0.030000
0.040000
0.050000
0.040000
0.020000
0.020000
0.050000
0.050000
0.040000
0.030000
0.030000
0.030000
0.020000
0.030000
0.040000
0.050000
0.050000
0.050000
0.050000
0.040000
0.040000
0.040000
0.040000
0.020000
0.010000
0.010000
0.020000
0.030000
0.030000
0.040000
0.050000
0.050000
0.050000
0.050000
0.040000
0.040000
0.030000
0.030000
0.040000
0.050000
0.060000
0.050000
0.040000
0.030000
0.020000
0.000000
-0.010000
-0.010000
-0.000000
0.020000
0.020000
0.010000
0.010000
0.020000
0.020000
0.020000
0.050000
0.090000
0.100000
0.070000
0.020000
0.010000
0.040000
0.060000
0.040000
0.010000
0.010000
0.020000
0.020000
0.010000
0.010000
0.030000
0.060000
0.070000
0.070000
0.050000
0.020000
0.010000
0.020000
0.040000
0.040000
0.030000
0.020000
0.020000
0.020000
0.000000
-0.010000
0.010000
0.050000
0.090000
0.090000
0.060000
0.030000
0.020000
0.020000
0.040000
0.070000
0.090000
0.080000
0.070000
0.050000
0.040000
0.030000
0.030000
0.030000
0.020000
0.010000
0.010000
0.020000
0.010000
0.010000
0.010000
0.020000
0.020000
0.020000
0.030000
0.040000
0.040000
0.020000
0.020000
0.020000
0.040000
0.040000
0.040000
0.040000
0.030000
0.010000
-0.010000
-0.020000
-0.020000
-0.010000
-0.000000
0.010000
0.020000
0.030000
0.040000
0.040000
0.040000
0.040000
0.050000
0.050000
0.050000
0.040000
0.020000
0.010000
0.000000
0.020000
0.030000
0.030000
0.020000
0.010000
0.020000
0.020000
0.030000
0.020000
0.000000
0.000000
0.050000
0.140000
0.230000
0.280000
0.280000
0.250000
0.230000
0.200000
0.170000
0.140000
0.120000
0.100000
0.050000
0.010000
0.000000
0.020000
0.020000
0.020000
0.010000
0.010000
0.010000
0.030000
0.050000
0.040000
0.020000
0.010000
0.000000
-0.010000
-0.010000
0.020000
0.050000
0.040000
-0.000000
-0.020000
-0.000000
0.030000
0.040000
0.020000
-0.000000
-0.010000
-0.010000
-0.010000
-0.000000
0.010000
0.020000
0.020000
0.020000
0.040000
0.070000
0.090000
0.070000
0.040000
0.000000
-0.010000
0.000000
0.020000
0.020000
0.020000
0.010000
-0.010000
-0.020000
-0.020000
-0.000000
0.010000
0.020000
0.010000
0.010000
0.030000
0.050000
0.040000
0.010000
-0.010000
0.000000
0.030000
0.030000
0.020000
0.040000
0.060000
0.070000
0.060000
0.030000
0.000000
-0.010000
0.010000
0.030000
0.030000
0.030000
0.030000
0.030000
-0.000000
-0.020000
0.010000
0.050000
0.070000
0.070000
0.060000
0.060000
0.050000
0.050000
0.040000
0.030000
0.020000
0.000000
-0.010000
0.000000
0.020000
0.020000
0.010000
-0.010000
-0.010000
-0.000000
-0.010000
-0.030000
-0.040000
-0.020000
0.000000
0.010000
0.010000
0.010000
0.010000
0.040000
0.060000
0.040000
-0.010000
-0.030000
-0.000000
0.030000
0.030000
0.010000
0.020000
0.040000
0.050000
0.030000
0.010000
0.010000
0.010000
-0.010000
-0.020000
-0.010000
0.010000
0.020000
0.040000
0.060000
0.070000
0.040000
-0.010000
-0.040000
-0.030000
-0.010000
-0.020000
-0.030000
-0.010000
0.030000
0.040000
0.020000
0.000000
-0.000000
0.010000
0.030000
0.040000
0.070000
0.090000
0.100000
0.080000
0.030000
-0.020000
-0.030000
-0.030000
-0.040000
-0.040000
-0.030000
-0.020000
-0.020000
-0.030000
-0.030000
0.010000
0.030000
0.010000
-0.030000
-0.040000
-0.030000
-0.020000
-0.010000
0.010000
0.020000
0.020000
0.020000
0.010000
-0.020000
-0.070000
-0.090000
-0.080000
-0.040000
-0.000000
0.020000
0.020000
0.020000
-0.010000
-0.040000
-0.070000
-0.070000
-0.070000
-0.060000
-0.050000
-0.020000
0.030000
0.070000
0.060000
0.020000
-0.000000
-0.000000
0.010000
0.000000
-0.020000
-0.050000
-0.070000
-0.050000
-0.020000
-0.010000
-0.040000
-0.060000
-0.070000
-0.040000
0.040000
0.130000
0.220000
0.280000
0.300000
0.270000
0.200000
0.130000
0.080000
0.080000
0.090000
0.090000
0.090000
0.080000
0.050000
0.000000
-0.050000
-0.080000
-0.060000
-0.010000
0.020000
0.010000
-0.010000
-0.030000
-0.030000
-0.030000
-0.040000
-0.050000
-0.070000
-0.080000
-0.070000
-0.040000
-0.010000
-0.020000
-0.050000
-0.090000
-0.110000
-0.090000
-0.040000
-0.010000
-0.030000
-0.050000
-0.040000
-0.040000
-0.060000
-0.070000
-0.040000
-0.010000
-0.020000
-0.030000
-0.020000
-0.010000
-0.000000
0.000000
0.010000
-0.010000
-0.020000
-0.030000
-0.030000
-0.040000
-0.030000
-0.020000
-0.020000
-0.040000
-0.050000
-0.040000
-0.030000
-0.040000
-0.070000
-0.100000
-0.100000
-0.080000
-0.040000
-0.010000
0.000000
0.010000
0.000000
-0.030000
-0.050000
-0.060000
-0.050000
-0.030000
-0.010000
-0.000000
-0.010000
-0.030000
-0.040000
-0.030000
-0.020000
-0.030000
-0.040000
-0.040000
-0.040000
-0.050000
-0.060000
-0.040000
-0.000000
0.030000
0.040000
0.020000
-0.000000
-0.010000
-0.030000
-0.040000
-0.040000
-0.040000
-0.040000
-0.020000
0.000000
0.030000
0.020000
-0.030000
-0.090000
-0.110000
-0.070000
-0.030000
-0.010000
-0.020000
-0.020000
-0.010000
-0.020000
-0.050000
-0.050000
-0.050000
-0.070000
-0.080000
-0.030000
0.000000
-0.020000
-0.060000
-0.050000
-0.000000
0.040000
0.040000
-0.000000
-0.050000
-0.070000
-0.060000
-0.040000
-0.020000
-0.000000
0.030000
0.040000
0.000000
-0.050000
-0.070000
-0.070000
-0.070000
-0.070000
-0.080000
-0.070000
-0.040000
-0.020000
0.000000
0.020000
0.040000
0.050000
0.040000
0.010000
-0.020000
-0.030000
-0.010000
0.010000
0.010000
0.000000
-0.020000
-0.040000
-0.030000
-0.020000
-0.020000
-0.030000
-0.040000
-0.050000
-0.060000
-0.050000
-0.030000
-0.020000
-0.030000
-0.030000
-0.030000
-0.040000
-0.050000
-0.050000
-0.040000
-0.040000
-0.050000
-0.060000
-0.060000
-0.040000
0.000000
0.030000
0.020000
-0.020000
-0.050000
-0.050000
-0.020000
0.000000
0.030000
0.030000
0.020000
-0.020000
-0.050000
-0.080000
-0.070000
-0.050000
-0.030000
-0.030000
-0.050000
-0.050000
-0.040000
-0.040000
-0.030000
-0.030000
-0.020000
-0.010000
-0.020000
-0.040000
-0.050000
-0.060000
-0.060000
-0.050000
-0.020000
0.020000
0.070000
0.120000
0.170000
0.220000
0.250000
0.250000
0.240000
0.200000
0.150000
0.100000
0.060000
0.030000
0.010000
0.000000
0.010000
-0.000000
-0.020000
-0.050000
-0.080000
-0.100000
-0.080000
-0.050000
-0.020000
-0.020000
-0.030000
-0.030000
-0.020000
-0.020000
-0.020000
-0.010000
-0.010000
-0.010000
-0.040000
-0.060000
-0.070000
-0.060000
-0.060000
-0.070000
-0.070000
-0.040000
-0.010000
-0.000000
-0.010000
-0.030000
-0.060000
-0.080000
-0.080000
-0.060000
-0.030000
-0.040000
-0.050000
-0.040000
-0.030000
-0.020000
-0.040000
-0.040000
-0.030000
-0.010000
-0.010000
-0.030000
-0.050000
-0.060000
-0.050000
-0.040000
-0.020000
-0.010000
-0.010000
-0.020000
-0.020000
-0.010000
-0.010000
-0.030000
-0.030000
-0.010000
0.010000
-0.000000
-0.020000
-0.030000
-0.030000
-0.020000
-0.030000
-0.040000
-0.050000
-0.040000
-0.020000
-0.010000
-0.010000
-0.030000
-0.040000
-0.040000
-0.050000
-0.060000
-0.060000
-0.050000
-0.040000
-0.040000
-0.030000
-0.010000
0.020000
0.020000
0.010000
-0.010000
-0.020000
-0.020000
-0.020000
-0.000000
0.000000
-0.000000
-0.010000
-0.020000
-0.030000
-0.040000
-0.020000
-0.010000
-0.010000
-0.010000
0.000000
0.010000
0.010000
-0.010000
-0.030000
-0.050000
-0.060000
-0.040000
-0.030000
-0.010000
-0.010000
-0.030000
-0.030000
-0.030000
-0.020000
-0.020000
-0.020000
-0.020000
-0.020000
-0.020000
-0.040000
-0.050000
-0.040000
-0.010000
0.010000
0.020000
0.000000
-0.010000
-0.020000
-0.010000
-0.000000
-0.020000
-0.030000
-0.030000
-0.010000
-0.010000
-0.010000
0.010000
0.030000
0.030000
0.020000
0.020000
0.040000
0.050000
0.030000
0.000000
-0.020000
-0.020000
-0.020000
-0.020000
-0.010000
-0.010000
-0.010000
-0.020000
-0.030000
-0.040000
-0.040000
-0.030000
-0.030000
-0.040000
-0.050000
-0.040000
-0.020000
-0.010000
0.000000
0.010000
0.010000
0.000000
-0.010000
-0.010000
-0.020000
-0.040000
-0.050000
-0.060000
-0.050000
-0.040000
-0.030000
-0.030000
-0.040000
-0.050000
-0.060000
-0.050000
-0.020000
0.010000
0.020000
0.020000
-0.000000
-0.030000
-0.040000
-0.040000
-0.030000
-0.020000
-0.010000
0.010000
0.010000
-0.010000
-0.020000
-0.030000
-0.040000
-0.050000
-0.050000
-0.030000
-0.020000
-0.010000
0.010000
0.070000
0.160000
0.240000
0.310000
0.350000
0.350000
0.290000
0.190000
0.120000
0.090000
0.090000
0.070000
0.050000
0.010000
-0.020000
-0.040000
-0.050000
-0.050000
-0.040000
-0.030000
-0.010000
-0.010000
-0.020000
-0.030000
-0.030000
-0.020000
-0.000000
0.010000
-0.000000
-0.030000
-0.040000
-0.030000
-0.020000
-0.020000
-0.020000
-0.010000
-0.010000
-0.020000
-0.040000
-0.060000
-0.050000
-0.030000
-0.010000
-0.000000
-0.000000
-0.010000
-0.000000
-0.020000
-0.050000
-0.060000
-0.050000
-0.020000
-0.010000
-0.030000
-0.040000
-0.030000
-0.010000
0.000000
-0.000000
-0.000000
0.000000
0.020000
0.030000
0.030000
0.010000
-0.010000
-0.030000
-0.030000
-0.030000
-0.010000
0.010000
0.020000
-0.000000
-0.020000
-0.020000
-0.010000
0.010000
0.010000
-0.010000
-0.010000
-0.020000
-0.040000
-0.050000
-0.050000
-0.020000
-0.000000
0.010000
0.010000
0.020000
0.030000
0.020000
0.010000
0.010000
0.000000
0.000000
0.010000
0.010000
0.020000
0.030000
0.040000
0.030000
0.020000
-0.010000
-0.030000
-0.030000
-0.020000
-0.010000
0.000000
0.010000
0.020000
0.020000
0.020000
0.020000
0.010000
-0.000000
-0.010000
0.000000
0.010000
0.020000
0.030000
0.020000
0.010000
-0.000000
-0.010000
-0.010000
-0.020000
-0.030000
-0.040000
-0.030000
-0.000000
0.010000
0.000000
-0.000000
-0.000000
-0.000000
-0.010000
-0.010000
-0.020000
-0.020000
-0.010000
-0.000000
0.010000
0.010000
0.000000
-0.000000
0.000000
0.020000
0.030000
0.040000
0.020000
0.010000
-0.000000
-0.000000
-0.000000
-0.000000
0.010000
0.030000
0.040000
0.030000
0.030000
0.050000
0.060000
0.040000
0.020000
0.020000
0.040000
0.030000
0.000000
-0.020000
-0.020000
-0.010000
0.000000
0.000000
-0.010000
-0.020000
-0.010000
0.000000
-0.010000
-0.030000
-0.030000
-0.030000
-0.030000
-0.030000
-0.020000
0.000000
0.010000
0.010000
0.000000
0.000000
0.010000
0.020000
0.020000
0.010000
0.010000
-0.000000
-0.010000
-0.010000
-0.010000
-0.000000
0.010000
0.030000
0.030000
0.020000
-0.000000
-0.020000
-0.020000
-0.000000
0.010000
0.020000
0.010000
0.000000
0.000000
0.000000
-0.000000
-0.020000
-0.030000
-0.030000
-0.020000
-0.010000
-0.010000
0.000000
0.030000
0.060000
0.100000
0.150000
0.210000
0.270000
0.300000
0.290000
0.240000
0.190000
0.140000
0.090000
0.050000
0.020000
0.020000
0.030000
0.030000
0.030000
0.020000
0.010000
0.000000
-0.010000
-0.010000
-0.010000
0.000000
0.010000
-0.000000
-0.030000
-0.040000
-0.040000
-0.030000
-0.030000
-0.040000
-0.040000
-0.040000
-0.020000
-0.020000
-0.010000
-0.020000
-0.030000
-0.030000
-0.020000
-0.000000
0.000000
-0.020000
-0.030000
-0.010000
0.020000
0.020000
0.000000
-0.010000
-0.010000
-0.000000
0.000000
0.000000
-0.010000
-0.010000
0.000000
0.010000
0.010000
-0.000000
-0.010000
-0.010000
-0.010000
-0.010000
-0.000000
-0.000000
-0.010000
-0.000000
0.010000
0.020000
0.020000
0.010000
0.010000
0.010000
0.010000
0.010000
0.020000
0.020000
0.020000
0.010000
0.010000
0.010000
0.020000
0.030000
0.030000
0.030000
0.020000
0.010000
0.020000
0.010000
0.000000
-0.000000
0.010000
0.010000
0.000000
0.010000
0.020000
0.030000
0.020000
0.010000
0.010000
0.020000
0.030000
0.030000
0.030000
0.030000
0.030000
0.030000
0.020000
0.020000
0.020000
0.020000
0.010000
-0.000000
-0.010000
-0.010000
-0.020000
-0.020000
-0.010000
0.000000
0.000000
-0.000000
0.000000
0.010000
0.010000
-0.000000
-0.010000
-0.010000
-0.000000
0.000000
0.010000
0.020000
0.010000
0.000000
-0.000000
-0.000000
-0.000000
-0.010000
-0.010000
-0.010000
-0.010000
-0.020000
-0.010000
-0.000000
0.010000
0.020000
0.010000
-0.000000
-0.010000
-0.010000
0.020000
0.040000
0.040000
0.040000
0.050000
0.060000
0.070000
0.060000
0.050000
0.030000
0.030000
0.040000
0.060000
0.070000
0.050000
0.020000
-0.010000
-0.010000
0.010000
0.030000
0.040000
0.040000
0.040000
0.030000
0.020000
0.010000
0.010000
0.000000
0.000000
-0.000000
-0.010000
-0.020000
-0.020000
-0.010000
-0.010000
-0.020000
-0.020000
-0.020000
-0.000000
0.010000
0.010000
0.000000
-0.010000
-0.010000
-0.000000
0.000000
0.010000
0.020000
0.020000
0.010000
0.000000
0.010000
0.030000
0.040000
0.040000
0.030000
0.020000
0.010000
0.000000
-0.010000
-0.000000
0.010000
0.000000
-0.020000
-0.030000
-0.040000
-0.040000
-0.030000
-0.020000
-0.010000
0.000000
0.030000
0.070000
0.140000
0.210000
0.270000
0.300000
0.300000
0.260000
0.200000
0.150000
0.120000
0.090000
0.060000
0.030000
0.020000
0.020000
0.020000
0.010000
-0.000000
-0.020000
-0.020000
-0.010000
-0.010000
-0.010000
-0.010000
-0.020000
-0.030000
-0.040000
-0.050000
-0.040000
-0.020000
-0.020000
-0.040000
-0.040000
-0.020000
0.010000
0.020000
0.020000
0.020000
0.010000
-0.000000
-0.020000
-0.020000
-0.010000
-0.000000
-0.010000
-0.030000
-0.040000
-0.040000
-0.030000
-0.020000
-0.020000
-0.010000
-0.010000
-0.010000
-0.020000
-0.020000
-0.010000
0.010000
0.020000
0.020000
0.000000
-0.020000
-0.010000
0.000000
0.010000
0.010000
-0.000000
0.000000
0.010000
0.010000
-0.000000
-0.000000
0.010000
0.020000
0.020000
0.020000
0.010000
0.010000
0.010000
0.020000
0.040000
0.040000
0.020000
-0.010000
-0.030000
-0.020000
-0.000000
0.000000
0.000000
0.000000
0.000000
0.000000
-0.010000
-0.010000
-0.010000
-0.010000
-0.010000
-0.010000
0.000000
0.010000
0.000000
-0.000000
0.000000
0.010000
0.010000
0.000000
0.000000
0.000000
0.000000
0.000000
-0.000000
-0.010000
-0.010000
-0.000000
0.010000
0.020000
0.010000
0.000000
-0.010000
-0.000000
0.010000
0.010000
-0.000000
-0.020000
-0.020000
-0.000000
0.000000
-0.010000
-0.030000
-0.030000
0.000000
0.020000
0.010000
-0.020000
-0.030000
-0.030000
-0.030000
-0.030000
-0.020000
-0.020000
-0.020000
-0.020000
-0.010000
-0.010000
-0.010000
-0.010000
-0.030000
-0.040000
-0.040000
-0.030000
-0.020000
-0.030000
-0.030000
-0.020000
-0.010000
0.010000
0.050000
0.070000
0.070000
0.040000
0.020000
0.010000
0.020000
0.020000
0.020000
0.020000
0.000000
-0.020000
-0.020000
-0.000000
0.020000
0.020000
0.000000
-0.010000
-0.010000
-0.010000
-0.010000
-0.010000
-0.010000
-0.010000
-0.010000
-0.010000
-0.020000
-0.030000
-0.040000
-0.050000
-0.060000
-0.060000
-0.050000
-0.030000
-0.030000
-0.040000
-0.050000
-0.060000
-0.060000
-0.040000
-0.020000
-0.000000
-0.010000
-0.040000
-0.060000
-0.060000
-0.030000
-0.010000
-0.010000
-0.020000
-0.020000
-0.010000
-0.010000
-0.020000
-0.020000
-0.030000
-0.050000
-0.060000
-0.060000
-0.050000
-0.050000
-0.040000
-0.030000
-0.030000
-0.020000
-0.000000
0.040000
0.100000
0.170000
0.240000
0.280000
0.290000
0.260000
0.190000
0.140000
0.110000
0.080000
0.050000
0.020000
-0.010000
-0.030000
-0.030000
-0.020000
-0.010000
-0.030000
-0.060000
-0.070000
-0.040000
-0.020000
-0.020000
-0.030000
-0.040000
-0.040000
-0.040000
-0.040000
-0.050000
-0.060000
-0.060000
-0.060000
-0.050000
-0.060000
-0.060000
-0.050000
-0.040000
-0.040000
-0.040000
-0.040000
-0.040000
-0.030000
-0.030000
-0.050000
-0.080000
-0.090000
-0.090000
-0.070000
-0.060000
-0.060000
-0.070000
-0.080000
-0.070000
-0.050000
-0.030000
-0.020000
-0.030000
-0.030000
-0.040000
-0.040000
-0.040000
-0.040000
-0.030000
-0.020000
-0.020000
-0.030000
-0.040000
-0.030000
-0.030000
-0.020000
-0.030000
-0.030000
-0.030000
-0.020000
-0.030000
-0.050000
-0.060000
-0.050000
-0.050000
-0.040000
-0.030000
-0.030000
-0.020000
-0.020000
-0.020000
-0.020000
-0.010000
0.000000
0.000000
-0.010000
-0.020000
-0.040000
-0.050000
-0.040000
-0.020000
-0.020000
-0.030000
-0.040000
-0.040000
-0.050000
-0.050000
-0.050000
-0.040000
-0.040000
-0.040000
-0.030000
-0.030000
-0.040000
-0.040000
-0.030000
-0.020000
-0.010000
-0.010000
-0.010000
-0.020000
-0.040000
-0.050000
-0.060000
-0.060000
-0.050000
-0.040000
-0.040000
-0.040000
-0.040000
-0.050000
-0.040000
-0.020000
-0.010000
-0.020000
-0.040000
-0.040000
-0.040000
-0.030000
-0.030000
-0.030000
-0.040000
-0.040000
-0.040000
-0.030000
-0.010000
0.000000
-0.010000
-0.040000
-0.060000
-0.060000
-0.050000
-0.050000
-0.040000
-0.030000
-0.030000
-0.020000
0.000000
0.020000
0.010000
0.000000
0.010000
0.010000
-0.010000
-0.040000
-0.050000
-0.030000
-0.020000
-0.030000
-0.040000
-0.040000
-0.020000
-0.020000
-0.030000
-0.050000
-0.070000
-0.080000
-0.080000
-0.080000
-0.070000
-0.060000
-0.050000
-0.050000
-0.050000
-0.060000
-0.050000
-0.040000
-0.030000
-0.040000
-0.040000
-0.040000
-0.020000
-0.010000
-0.010000
-0.020000
-0.030000
-0.030000
-0.040000
-0.040000
-0.050000
-0.040000
-0.030000
-0.030000
-0.030000
-0.040000
-0.030000
-0.030000
-0.030000
-0.030000
-0.030000
-0.030000
-0.030000
-0.020000
-0.020000
-0.030000
-0.040000
-0.060000
-0.060000
-0.060000
-0.070000
-0.060000
-0.050000
-0.040000
-0.030000
-0.010000
0.030000
0.100000
0.190000
0.260000
0.290000
0.290000
0.250000
0.180000
0.130000
0.080000
0.040000
0.020000
0.010000
0.020000
0.030000
0.020000
-0.010000
-0.050000
-0.060000
-0.060000
-0.050000
-0.050000
-0.060000
-0.050000
-0.040000
-0.030000
-0.040000
-0.060000
-0.070000
-0.070000
-0.060000
-0.050000
-0.050000
-0.050000
-0.070000
-0.070000
-0.070000
-0.070000
-0.060000
-0.060000
-0.070000
-0.070000
-0.070000
-0.070000
-0.060000
-0.060000
-0.060000
-0.060000
-0.050000
-0.060000
-0.080000
-0.090000
-0.080000
-0.050000
-0.020000
-0.010000
-0.020000
-0.040000
-0.050000
-0.060000
-0.070000
-0.060000
-0.040000
-0.030000
-0.030000
-0.030000
-0.030000
-0.040000
-0.030000
-0.020000
-0.030000
-0.040000
-0.050000
-0.040000
-0.040000
-0.040000
-0.050000
-0.040000
-0.030000
-0.010000
-0.010000
-0.030000
-0.050000
-0.050000
-0.050000
-0.060000
-0.060000
-0.060000
-0.040000
-0.030000
-0.020000
-0.010000
-0.030000
-0.040000
-0.040000
-0.030000
-0.040000
-0.050000
-0.040000
-0.030000
-0.030000
-0.050000
-0.050000
-0.030000
-0.010000
0.000000
0.000000
-0.020000
-0.040000
-0.050000
-0.040000
-0.010000
0.020000
0.010000
-0.010000
-0.030000
-0.030000
-0.020000
-0.020000
-0.030000
-0.040000
-0.040000
-0.060000
-0.080000
-0.100000
-0.100000
-0.080000
-0.060000
-0.060000
-0.050000
-0.050000
-0.030000
-0.030000
-0.040000
-0.060000
-0.060000
-0.030000
-0.000000
0.000000
-0.000000
-0.020000
-0.040000
-0.050000
-0.050000
-0.050000
-0.060000
-0.050000
-0.040000
-0.030000
-0.030000
-0.030000
-0.030000
-0.020000
-0.000000
-0.000000
-0.000000
-0.000000
-0.000000
-0.010000
-0.020000
-0.030000
-0.030000
-0.040000
-0.040000
-0.030000
-0.020000
-0.020000
-0.030000
-0.040000
-0.030000
-0.030000
-0.030000
-0.030000
-0.030000
-0.040000
-0.050000
-0.050000
-0.030000
-0.010000
-0.010000
-0.020000
-0.040000
-0.040000
-0.050000
-0.070000
-0.080000
-0.060000
-0.040000
-0.040000
-0.040000
-0.040000
-0.030000
-0.040000
-0.040000
-0.040000
-0.030000
-0.040000
-0.050000
-0.060000
-0.060000
-0.050000
-0.040000
-0.030000
-0.040000
-0.060000
-0.080000
-0.090000
-0.080000
-0.040000
-0.020000
-0.020000
-0.030000
-0.030000
-0.030000
-0.040000
-0.050000
-0.040000
-0.040000
-0.020000
0.020000
0.080000
0.160000
0.240000
0.310000
0.340000
0.310000
0.250000
0.190000
0.140000
0.100000
0.060000
0.020000
-0.010000
-0.020000
-0.030000
-0.030000
-0.030000
-0.030000
-0.040000
-0.050000
-0.050000
-0.060000
-0.070000
-0.060000
-0.050000
-0.050000
-0.060000
-0.050000
-0.040000
-0.040000
-0.070000
-0.090000
-0.090000
-0.080000
-0.080000
-0.070000
-0.060000
-0.040000
-0.030000
-0.050000
-0.050000
-0.050000
-0.050000
-0.060000
-0.070000
-0.060000
-0.050000
-0.040000
-0.040000
-0.040000
-0.040000
-0.040000
-0.030000
-0.030000
-0.030000
-0.040000
-0.050000
-0.060000
-0.070000
-0.060000
-0.060000
-0.060000
-0.040000
-0.030000
-0.020000
-0.030000
-0.040000
-0.050000
-0.050000
-0.050000
-0.040000
-0.030000
-0.020000
-0.010000
-0.010000
-0.020000
-0.030000
-0.030000
-0.040000
-0.050000
-0.040000
-0.020000
-0.010000
-0.030000
-0.060000
-0.060000
-0.040000
-0.020000
-0.020000
-0.020000
-0.040000
-0.040000
-0.020000
-0.010000
-0.000000
-0.010000
-0.020000
-0.030000
-0.030000
-0.030000
-0.030000
-0.030000
-0.030000
-0.030000
-0.040000
-0.040000
-0.030000
-0.020000
-0.010000
-0.010000
-0.010000
-0.010000
-0.020000
-0.030000
-0.030000
-0.040000
-0.050000
-0.050000
-0.040000
-0.030000
-0.020000
-0.030000
-0.040000
-0.040000
-0.040000
-0.030000
-0.020000
-0.020000
-0.020000
-0.020000
-0.010000
-0.010000
-0.010000
-0.020000
-0.030000
-0.050000
-0.060000
-0.050000
-0.030000
-0.020000
-0.010000
-0.000000
-0.010000
-0.030000
-0.040000
-0.030000
-0.010000
0.000000
0.000000
0.000000
0.000000
0.010000
0.010000
0.010000
0.000000
0.000000
0.010000
0.020000
0.020000
0.020000
0.020000
0.030000
0.030000
0.030000
0.020000
0.010000
-0.000000
-0.030000
-0.050000
-0.050000
-0.050000
-0.040000
-0.030000
-0.020000
-0.010000
-0.010000
-0.020000
-0.020000
-0.020000
-0.020000
-0.010000
-0.020000
-0.030000
-0.030000
-0.030000
-0.020000
-0.030000
-0.040000
-0.030000
-0.030000
-0.020000
-0.020000
-0.030000
-0.030000
-0.040000
-0.040000
-0.030000
-0.010000
-0.010000
-0.030000
-0.040000
-0.030000
-0.020000
-0.020000
-0.020000
-0.030000
-0.030000
-0.030000
-0.030000
-0.030000
-0.030000
-0.040000
-0.050000
-0.050000
-0.060000
-0.070000
-0.070000
-0.060000
-0.020000
0.020000
0.070000
0.140000
0.210000
0.280000
0.310000
0.300000
0.240000
0.180000
0.130000
0.110000
0.090000
0.060000
0.030000
0.020000
0.010000
-0.000000
-0.020000
-0.020000
-0.020000
-0.020000
-0.010000
-0.010000
-0.020000
-0.030000
-0.040000
-0.030000
-0.010000
0.000000
-0.000000
-0.020000
-0.040000
-0.040000
-0.040000
-0.040000
-0.040000
-0.030000
-0.030000
-0.030000
-0.030000
-0.030000
-0.030000
-0.030000
-0.040000
-0.040000
-0.040000
-0.030000
-0.030000
-0.040000
-0.040000
-0.040000
-0.030000
-0.020000
-0.020000
-0.030000
-0.040000
-0.040000
-0.040000
-0.030000
-0.020000
-0.020000
-0.020000
-0.020000
-0.020000
-0.010000
-0.000000
-0.010000
-0.010000
-0.020000
-0.030000
-0.040000
-0.040000
-0.020000
-0.010000
-0.000000
0.010000
0.010000
0.020000
0.010000
-0.010000
-0.020000
-0.020000
-0.010000
0.010000
0.020000
0.020000
0.020000
0.010000
-0.000000
-0.010000
-0.020000
-0.020000
-0.010000
0.000000
0.020000
0.020000
0.010000
-0.010000
-0.010000
-0.010000
-0.000000
0.010000
0.010000
0.010000
0.010000
-0.010000
-0.020000
-0.020000
-0.030000
-0.040000
-0.040000
-0.020000
0.000000
0.000000
-0.010000
-0.020000
-0.010000
0.000000
-0.010000
-0.030000
-0.040000
-0.030000
-0.010000
0.000000
0.020000
0.030000
0.020000
0.020000
0.010000
0.010000
-0.000000
-0.010000
-0.020000
-0.020000
-0.010000
-0.000000
-0.000000
-0.010000
-0.010000
-0.020000
-0.020000
-0.030000
-0.020000
-0.020000
-0.010000
-0.010000
-0.000000
0.000000
0.010000
0.000000
-0.010000
-0.020000
-0.020000
-0.010000
0.010000
0.020000
0.020000
0.020000
0.020000
0.030000
0.040000
0.040000
0.030000
0.020000
0.020000
0.030000
0.020000
0.010000
-0.000000
0.010000
0.020000
0.010000
-0.010000
-0.020000
-0.020000
-0.010000
-0.000000
-0.010000
-0.010000
-0.020000
-0.030000
-0.030000
-0.020000
-0.010000
-0.020000
-0.040000
-0.030000
-0.020000
-0.010000
-0.010000
-0.000000
-0.010000
-0.010000
-0.010000
-0.010000
-0.000000
-0.000000
-0.020000
-0.030000
-0.020000
-0.010000
-0.010000
-0.010000
-0.020000
-0.010000
-0.010000
-0.010000
-0.030000
-0.050000
-0.050000
-0.040000
-0.030000
-0.030000
-0.020000
0.010000
0.030000
0.030000
0.020000
0.000000
-0.020000
-0.030000
-0.030000
-0.020000
-0.010000
0.020000
0.070000
0.140000
0.220000
0.290000
0.320000
0.320000
0.280000
0.220000
0.160000
0.100000
0.060000
0.030000
0.010000
-0.010000
-0.020000
-0.020000
-0.030000
-0.030000
-0.020000
-0.010000
-0.010000
-0.020000
-0.020000
-0.010000
-0.010000
-0.010000
-0.020000
-0.030000
-0.040000
-0.040000
-0.030000
-0.020000
-0.020000
-0.030000
-0.030000
-0.020000
-0.020000
-0.020000
-0.020000
-0.030000
-0.030000
-0.030000
-0.030000
-0.030000
-0.010000
-0.000000
-0.000000
-0.020000
-0.040000
-0.050000
-0.050000
-0.050000
-0.030000
-0.020000
-0.010000
-0.010000
-0.010000
-0.000000
-0.000000
-0.010000
-0.020000
-0.010000
-0.010000
-0.010000
-0.020000
-0.010000
0.010000
0.010000
0.010000
0.000000
-0.000000
-0.000000
-0.010000
-0.000000
0.000000
0.010000
0.020000
0.030000
0.020000
0.000000
-0.010000
-0.000000
0.000000
0.000000
-0.000000
-0.010000
-0.010000
-0.010000
-0.000000
0.010000
0.010000
0.010000
0.010000
-0.000000
-0.010000
-0.020000
-0.010000
-0.010000
0.000000
0.010000
0.020000
0.010000
0.000000
-0.000000
-0.000000
0.000000
0.030000
0.050000
0.050000
0.040000
0.030000
0.010000
0.000000
0.000000
0.010000
0.010000
0.000000
-0.010000
-0.030000
-0.030000
-0.010000
0.010000
0.030000
0.030000
0.020000
0.000000
-0.010000
-0.020000
-0.020000
-0.030000
-0.020000
-0.010000
-0.010000
-0.010000
-0.010000
-0.010000
-0.020000
-0.020000
-0.010000
0.000000
0.000000
-0.000000
-0.010000
-0.010000
-0.010000
-0.000000
0.000000
0.020000
0.020000
0.010000
0.010000
0.020000
0.040000
0.050000
0.060000
0.050000
0.050000
0.050000
0.050000
0.050000
0.040000
0.030000
0.010000
-0.000000
-0.010000
-0.020000
-0.030000
-0.020000
-0.010000
0.020000
0.030000
0.020000
0.010000
-0.000000
-0.000000
-0.000000
-0.000000
-0.010000
-0.010000
-0.010000
-0.020000
-0.010000
0.000000
0.000000
-0.000000
-0.010000
0.000000
0.020000
0.020000
0.010000
-0.000000
-0.010000
-0.000000
-0.000000
-0.020000
-0.030000
-0.030000
-0.020000
-0.000000
0.010000
0.010000
-0.000000
-0.030000
-0.050000
-0.050000
-0.030000
-0.010000
-0.010000
-0.010000
0.010000
0.040000
0.030000
0.010000
-0.010000
-0.020000
-0.020000
-0.010000
-0.010000
-0.010000
-0.000000
0.030000
0.100000
0.170000
0.240000
0.300000
0.310000
0.280000
0.220000
0.170000
0.130000
0.100000
0.060000
0.020000
-0.000000
-0.000000
0.000000
0.010000
0.020000
0.020000
-0.010000
-0.030000
-0.030000
-0.020000
-0.020000
-0.030000
-0.030000
-0.030000
-0.020000
-0.030000
-0.040000
-0.040000
-0.030000
-0.010000
-0.010000
-0.010000
-0.010000
-0.010000
-0.010000
-0.020000
-0.020000
-0.010000
-0.000000
0.010000
0.010000
0.010000
0.020000
0.020000
-0.010000
-0.040000
-0.070000
-0.080000
-0.070000
-0.040000
-0.010000
0.020000
0.020000
0.010000
0.000000
-0.010000
-0.020000
-0.020000
-0.020000
-0.010000
-0.000000
-0.010000
-0.010000
-0.010000
-0.010000
-0.010000
0.010000
0.030000
0.030000
0.010000
0.000000
0.000000
-0.000000
-0.010000
-0.020000
-0.010000
0.020000
0.040000
0.030000
0.000000
-0.010000
0.000000
0.010000
-0.010000
-0.030000
-0.020000
-0.000000
0.020000
0.020000
0.020000
0.020000
0.020000
-0.000000
-0.020000
-0.010000
0.010000
0.020000
0.000000
0.000000
0.000000
0.010000
0.010000
0.020000
0.010000
-0.000000
-0.010000
0.000000
0.000000
-0.010000
-0.020000
-0.020000
-0.020000
-0.010000
-0.000000
-0.000000
-0.010000
-0.030000
-0.050000
-0.050000
-0.050000
-0.040000
-0.040000
-0.040000
-0.030000
-0.000000
0.010000
0.000000
-0.010000
-0.010000
-0.020000
-0.030000
-0.040000
-0.030000
-0.010000
-0.010000
-0.030000
-0.030000
0.000000
0.020000
-0.010000
-0.030000
-0.030000
-0.020000
-0.010000
-0.010000
0.000000
0.010000
0.010000
0.010000
0.020000
0.020000
0.020000
0.030000
0.040000
0.030000
0.010000
-0.010000
0.000000
0.030000
0.050000
0.060000
0.040000
0.020000
-0.010000
-0.040000
-0.060000
-0.070000
-0.060000
-0.040000
-0.020000
-0.020000
-0.020000
-0.040000
-0.050000
-0.040000
-0.030000
-0.020000
-0.030000
-0.040000
-0.050000
-0.040000
-0.030000
-0.020000
-0.030000
-0.030000
-0.020000
-0.000000
0.000000
0.010000
0.010000
0.010000
-0.020000
-0.040000
-0.050000
-0.040000
-0.030000
-0.000000
0.020000
-0.000000
-0.040000
-0.050000
-0.040000
-0.030000
-0.030000
-0.030000
-0.010000
-0.010000
-0.010000
-0.020000
-0.020000
-0.020000
-0.030000
-0.050000
-0.050000
-0.040000
-0.030000
-0.020000
-0.010000
0.020000
0.080000
0.170000
0.250000
0.300000
0.310000
0.270000
0.220000
0.160000
0.120000
0.080000
0.050000
0.040000
0.030000
0.010000
0.000000
0.000000
-0.000000
-0.020000
-0.040000
-0.060000
-0.060000
-0.040000
-0.030000
-0.040000
-0.070000
-0.060000
-0.020000
0.000000
-0.020000
-0.050000
-0.060000
-0.060000
-0.070000
-0.080000
-0.080000
-0.060000
-0.030000
-0.020000
-0.020000
-0.030000
-0.040000
-0.040000
-0.030000
-0.030000
-0.030000
-0.040000
-0.040000
-0.040000
-0.030000
-0.030000
-0.020000
-0.010000
-0.030000
-0.060000
-0.060000
-0.050000
-0.040000
-0.050000
-0.070000
-0.070000
-0.060000
-0.040000
-0.040000
-0.050000
-0.060000
-0.050000
-0.040000
-0.030000
-0.030000
-0.030000
-0.030000
-0.020000
0.000000
0.020000
0.020000
-0.000000
-0.020000
-0.030000
-0.020000
-0.020000
-0.020000
-0.020000
-0.010000
-0.010000
-0.020000
-0.020000
-0.020000
-0.020000
-0.030000
-0.040000
-0.050000
-0.060000
-0.040000
-0.010000
0.020000
0.010000
0.000000
-0.000000
-0.000000
-0.010000
-0.020000
-0.030000
-0.050000
-0.070000
-0.060000
-0.040000
-0.030000
-0.030000
-0.040000
-0.040000
-0.030000
-0.020000
-0.010000
0.000000
0.010000
0.000000
-0.020000
-0.040000
-0.040000
-0.020000
-0.020000
-0.040000
-0.050000
-0.050000
-0.040000
-0.030000
-0.020000
-0.010000
-0.020000
-0.040000
-0.050000
-0.030000
-0.020000
-0.030000
-0.050000
-0.050000
-0.020000
0.000000
0.000000
-0.000000
-0.010000
-0.010000
-0.030000
-0.050000
-0.040000
-0.030000
-0.010000
-0.010000
-0.020000
-0.020000
-0.020000
-0.020000
-0.030000
-0.030000
-0.020000
-0.000000
0.020000
0.020000
-0.000000
-0.020000
-0.010000
-0.000000
-0.020000
-0.050000
-0.050000
-0.040000
-0.020000
-0.020000
-0.020000
-0.020000
-0.030000
-0.050000
-0.060000
-0.040000
-0.030000
-0.050000
-0.050000
-0.030000
-0.020000
-0.040000
-0.060000
-0.060000
-0.060000
-0.050000
-0.040000
-0.040000
-0.040000
-0.040000
-0.040000
-0.040000
-0.060000
-0.060000
-0.050000
-0.030000
-0.010000
0.010000
0.010000
-0.020000
-0.030000
-0.020000
-0.000000
-0.010000
-0.040000
-0.040000
-0.020000
-0.010000
-0.020000
-0.040000
-0.040000
-0.020000
-0.020000
-0.040000
-0.050000
-0.060000
-0.050000
-0.040000
-0.020000
-0.010000
-0.000000
-0.000000
0.000000
0.020000
0.070000
0.150000
0.240000
0.310000
0.350000
0.330000
0.280000
0.210000
0.140000
0.080000
0.030000
-0.000000
-0.020000
-0.030000
-0.020000
0.000000
0.020000
0.000000
-0.050000
-0.090000
-0.080000
-0.060000
-0.030000
-0.020000
-0.020000
-0.030000
-0.030000
-0.040000
-0.050000
-0.050000
-0.040000
-0.030000
-0.020000
-0.030000
-0.030000
-0.030000
-0.020000
-0.010000
-0.020000
-0.030000
-0.040000
-0.040000
-0.040000
-0.040000
-0.030000
-0.030000
-0.040000
-0.040000
-0.030000
-0.030000
-0.030000
-0.020000
-0.020000
-0.020000
-0.030000
-0.050000
-0.060000
-0.050000
-0.040000
-0.040000
-0.050000
-0.060000
-0.050000
-0.030000
-0.020000
-0.010000
-0.010000
-0.030000
-0.060000
-0.080000
-0.070000
-0.040000
-0.010000
0.020000
0.020000
0.010000
-0.020000
-0.030000
-0.020000
0.010000
0.030000
0.020000
0.000000
-0.010000
-0.020000
-0.010000
0.000000
0.010000
-0.000000
-0.020000
-0.020000
-0.010000
-0.030000
-0.060000
-0.070000
-0.060000
-0.060000
-0.050000
-0.030000
-0.010000
-0.020000
-0.030000
-0.000000
0.030000
0.050000
0.010000
-0.040000
-0.070000
-0.070000
-0.060000
-0.020000
0.020000
0.060000
0.060000
0.030000
-0.000000
-0.020000
-0.040000
-0.040000
-0.030000
-0.030000
-0.030000
-0.030000
-0.020000
-0.010000
-0.010000
-0.000000
0.010000
-0.000000
-0.010000
-0.010000
-0.000000
-0.010000
-0.010000
-0.020000
-0.030000
-0.040000
-0.030000
-0.010000
-0.000000
-0.020000
-0.040000
-0.050000
-0.030000
-0.010000
-0.000000
-0.010000
-0.010000
-0.010000
0.010000
0.020000
0.030000
0.040000
0.060000
0.050000
0.030000
0.030000
0.030000
0.030000
0.020000
0.010000
-0.000000
-0.030000
-0.040000
-0.040000
-0.040000
-0.040000
-0.030000
-0.020000
-0.020000
-0.010000
-0.010000
-0.010000
-0.020000
-0.040000
-0.040000
-0.030000
-0.020000
-0.030000
-0.040000
-0.050000
-0.060000
-0.050000
-0.020000
0.000000
0.010000
-0.000000
-0.010000
-0.010000
-0.020000
-0.030000
-0.020000
-0.030000
-0.040000
-0.050000
-0.040000
-0.020000
-0.020000
-0.030000
-0.030000
-0.030000
-0.040000
-0.040000
-0.010000
0.010000
0.010000
-0.030000
-0.050000
-0.040000
-0.010000
0.010000
0.020000
0.010000
-0.010000
-0.040000
-0.050000
-0.050000
-0.040000
-0.020000
0.030000
0.130000
0.240000
0.340000
0.390000
0.380000
0.320000
0.250000
0.190000
0.160000
0.130000
0.100000
0.070000
0.050000
0.040000
0.010000
-0.020000
-0.030000
-0.040000
-0.040000
-0.050000
-0.050000
-0.050000
-0.040000
-0.060000
-0.090000
-0.110000
-0.090000
-0.070000
-0.060000
-0.080000
-0.080000
-0.040000
-0.000000
-0.010000
-0.040000
-0.050000
-0.030000
-0.010000
0.000000
0.000000
-0.010000
-0.030000
-0.030000
-0.020000
-0.010000
-0.030000
-0.070000
-0.080000
-0.050000
-0.020000
-0.010000
-0.010000
-0.030000
-0.050000
-0.040000
-0.000000
0.030000
0.020000
-0.020000
-0.040000
-0.050000
-0.050000
-0.050000
-0.050000
-0.040000
-0.030000
-0.040000
-0.050000
-0.060000
-0.050000
-0.030000
-0.020000
0.000000
0.030000
0.050000
0.050000
0.020000
-0.010000
-0.020000
-0.020000
-0.010000
-0.030000
-0.040000
-0.020000
0.000000
-0.010000
-0.040000
-0.030000
-0.010000
0.010000
0.020000
0.020000
0.010000
-0.020000
-0.040000
-0.050000
-0.040000
-0.020000
-0.020000
-0.010000
0.010000
0.030000
0.030000
0.020000
0.020000
0.030000
0.030000
0.010000
-0.010000
-0.010000
-0.010000
-0.030000
-0.050000
-0.050000
-0.040000
-0.030000
-0.030000
-0.010000
-0.000000
0.000000
-0.000000
-0.010000
-0.030000
-0.030000
-0.020000
-0.010000
-0.030000
-0.040000
-0.030000
0.000000
0.020000
-0.000000
-0.020000
-0.020000
-0.000000
-0.000000
-0.010000
-0.010000
0.010000
-0.000000
-0.020000
-0.030000
-0.010000
0.000000
0.010000
0.010000
0.000000
-0.010000
-0.020000
-0.010000
-0.020000
-0.030000
-0.020000
0.000000
0.020000
0.020000
0.020000
0.010000
0.020000
0.030000
0.040000
0.030000
0.010000
-0.010000
-0.020000
-0.010000
-0.000000
0.000000
0.000000
-0.010000
-0.020000
-0.030000
-0.030000
-0.020000
-0.020000
-0.030000
-0.020000
-0.020000
-0.020000
-0.020000
-0.010000
0.010000
0.000000
-0.010000
-0.020000
-0.020000
-0.020000
-0.010000
-0.010000
-0.030000
-0.050000
-0.040000
-0.010000
-0.020000
-0.040000
-0.050000
-0.040000
-0.030000
-0.030000
-0.020000
-0.020000
-0.030000
-0.030000
-0.010000
-0.000000
-0.000000
-0.000000
-0.020000
-0.040000
-0.030000
-0.010000
0.010000
-0.010000
-0.030000
-0.020000
-0.000000
-0.010000
-0.040000
-0.070000
-0.080000
-0.050000
-0.010000
0.020000
0.070000
0.140000
0.230000
0.300000
0.330000
0.310000
0.250000
0.190000
0.150000
0.110000
0.090000
0.080000
0.060000
0.030000
0.010000
-0.000000
-0.000000
-0.000000
-0.000000
-0.010000
-0.020000
-0.020000
-0.020000
-0.030000
-0.040000
-0.020000
-0.000000
0.010000
-0.000000
-0.030000
-0.050000
-0.050000
-0.030000
-0.020000
-0.030000
-0.050000
-0.050000
-0.050000
-0.030000
-0.020000
-0.010000
-0.020000
-0.040000
-0.060000
-0.070000
-0.060000
-0.060000
-0.080000
-0.100000
-0.090000
-0.060000
-0.030000
-0.020000
-0.030000
-0.030000
-0.040000
-0.050000
-0.060000
-0.070000
-0.050000
-0.010000
0.010000
0.010000
0.000000
0.010000
0.010000
0.010000
-0.000000
-0.010000
-0.020000
-0.020000
-0.010000
-0.000000
-0.000000
0.000000
-0.000000
-0.010000
-0.000000
0.020000
0.040000
0.020000
-0.000000
-0.020000
-0.010000
0.000000
0.010000
0.020000
0.010000
-0.000000
-0.020000
-0.030000
-0.040000
-0.040000
-0.030000
-0.010000
-0.000000
-0.000000
-0.010000
-0.010000
-0.010000
-0.000000
0.000000
-0.010000
-0.040000
-0.060000
-0.060000
-0.020000
0.030000
0.040000
0.010000
-0.020000
-0.030000
-0.030000
-0.010000
0.010000
0.030000
0.020000
0.030000
0.040000
0.040000
0.020000
-0.010000
-0.020000
-0.020000
-0.010000
-0.000000
-0.010000
-0.020000
-0.020000
-0.010000
-0.010000
-0.010000
-0.010000
-0.020000
-0.010000
-0.010000
-0.020000
-0.050000
-0.060000
-0.060000
-0.050000
-0.030000
0.010000
0.040000
0.030000
-0.010000
-0.030000
-0.020000
-0.000000
0.020000
0.020000
0.000000
-0.010000
-0.010000
-0.000000
0.000000
0.000000
0.000000
-0.000000
-0.010000
-0.010000
0.000000
0.020000
0.040000
0.040000
0.040000
0.040000
0.030000
0.010000
0.000000
0.010000
0.010000
0.020000
0.020000
0.010000
-0.010000
-0.030000
-0.040000
-0.020000
-0.010000
-0.020000
-0.050000
-0.070000
-0.060000
-0.030000
-0.030000
-0.030000
-0.020000
-0.010000
-0.010000
0.010000
0.020000
0.040000
0.020000
-0.010000
-0.040000
-0.030000
-0.030000
-0.030000
-0.020000
-0.010000
-0.020000
-0.040000
-0.040000
-0.030000
-0.030000
-0.030000
-0.010000
0.020000
0.020000
-0.000000
-0.010000
-0.010000
-0.000000
-0.020000
-0.040000
-0.050000
-0.030000
-0.000000
0.000000
-0.010000
-0.020000
-0.020000
-0.020000
-0.010000
0.010000
0.050000
0.110000
0.190000
0.260000
0.310000
0.310000
0.280000
0.200000
0.120000
0.080000
0.070000
0.070000
0.060000
0.030000
0.010000
0.010000
0.010000
-0.010000
-0.040000
-0.040000
-0.040000
-0.040000
-0.040000
-0.030000
-0.030000
-0.030000
-0.030000
-0.040000
-0.060000
-0.070000
-0.050000
-0.020000
-0.010000
-0.010000
-0.010000
-0.000000
-0.010000
-0.020000
-0.010000
0.010000
0.020000
0.010000
-0.010000
-0.010000
-0.010000
-0.030000
-0.040000
-0.040000
-0.050000
-0.060000
-0.040000
-0.020000
-0.020000
-0.040000
-0.040000
-0.030000
-0.020000
-0.020000
-0.020000
-0.020000
-0.020000
-0.020000
-0.010000
-0.000000
0.000000
0.000000
-0.000000
0.000000
-0.000000
-0.010000
-0.010000
0.000000
0.010000
-0.000000
-0.000000
-0.000000
-0.010000
-0.020000
-0.010000
0.000000
0.000000
-0.010000
-0.010000
-0.000000
0.020000
0.030000
0.030000
0.010000
0.000000
0.000000
0.010000
0.010000
0.010000
0.010000
0.030000
0.030000
0.030000
0.010000
-0.010000
-0.010000
0.010000
0.030000
0.030000
0.010000
-0.000000
-0.000000
0.010000
0.020000
0.030000
0.040000
0.040000
0.030000
0.010000
-0.010000
-0.020000
-0.020000
-0.030000
-0.040000
-0.030000
-0.030000
-0.020000
-0.020000
-0.010000
-0.010000
-0.010000
-0.000000
-0.000000
-0.010000
-0.020000
-0.010000
-0.010000
-0.010000
-0.010000
-0.000000
0.010000
0.020000
0.020000
0.000000
-0.020000
-0.030000
-0.020000
0.000000
0.010000
0.010000
0.000000
-0.010000
-0.010000
0.000000
0.020000
0.010000
0.010000
0.020000
0.030000
0.030000
0.030000
0.030000
0.050000
0.070000
0.060000
0.040000
0.030000
0.030000
0.040000
0.030000
0.020000
0.030000
0.040000
0.060000
0.060000
0.040000
0.000000
-0.020000
-0.030000
-0.020000
-0.010000
0.010000
0.020000
0.000000
-0.010000
0.000000
0.030000
0.030000
0.020000
0.000000
-0.010000
0.000000
0.010000
0.010000
-0.010000
-0.020000
-0.020000
-0.000000
-0.000000
-0.010000
-0.000000
-0.000000
-0.010000
-0.020000
-0.000000
0.010000
-0.010000
-0.030000
-0.040000
-0.010000
0.020000
0.040000
0.040000
0.020000
0.010000
-0.000000
-0.000000
0.000000
0.010000
0.010000
0.010000
-0.000000
-0.010000
-0.010000
-0.010000
-0.010000
-0.010000
-0.030000
-0.030000
-0.020000
0.000000
0.040000
0.070000
0.130000
0.200000
0.250000
0.270000
0.260000
0.240000
0.210000
0.170000
0.130000
0.090000
0.030000
-0.010000
-0.020000
-0.010000
0.010000
0.020000
0.010000
-0.010000
-0.010000
0.000000
0.010000
-0.000000
-0.020000
-0.020000
-0.030000
-0.030000
-0.030000
-0.020000
0.010000
0.020000
0.010000
-0.000000
-0.020000
-0.040000
-0.050000
-0.050000
-0.020000
-0.010000
-0.010000
-0.030000
-0.010000
0.010000
0.020000
0.000000
-0.010000
-0.010000
-0.010000
-0.010000
-0.020000
-0.020000
-0.020000
-0.020000
-0.010000
-0.000000
0.000000
-0.000000
-0.010000
-0.010000
-0.010000
0.010000
0.010000
0.000000
-0.020000
-0.030000
-0.020000
-0.010000
-0.010000
-0.010000
0.000000
0.010000
0.000000
-0.000000
-0.000000
-0.000000
0.000000
0.010000
0.010000
-0.010000
-0.020000
-0.020000
-0.000000
0.010000
0.010000
-0.000000
0.000000
0.010000
0.020000
0.010000
-0.000000
-0.000000
0.010000
0.020000
0.010000
0.010000
-0.000000
-0.010000
-0.020000
-0.010000
0.020000
0.030000
0.010000
-0.010000
-0.020000
-0.030000
-0.050000
-0.060000
-0.040000
-0.010000
0.030000
0.040000
0.020000
0.000000
0.000000
-0.000000
-0.020000
-0.050000
-0.050000
-0.040000
-0.030000
-0.020000
-0.020000
-0.030000
-0.040000
-0.040000
-0.030000
0.000000
0.020000
0.020000
-0.000000
-0.030000
-0.040000
-0.040000
-0.030000
-0.020000
-0.010000
0.010000
0.010000
-0.030000
-0.040000
-0.020000
-0.010000
-0.020000
-0.040000
-0.040000
-0.040000
-0.040000
-0.020000
0.010000
0.030000
0.050000
0.050000
0.050000
0.050000
0.040000
0.050000
0.050000
0.050000
0.050000
0.040000
0.020000
-0.000000
-0.010000
-0.000000
0.010000
-0.000000
-0.020000
-0.040000
-0.040000
-0.040000
-0.040000
-0.040000
-0.040000
-0.030000
-0.030000
-0.030000
-0.030000
-0.020000
-0.010000
-0.010000
-0.030000
-0.040000
-0.040000
-0.040000
-0.040000
-0.050000
-0.060000
-0.050000
-0.010000
0.020000
-0.000000
-0.030000
-0.030000
-0.010000
-0.010000
-0.030000
-0.050000
-0.050000
-0.050000
-0.050000
-0.050000
-0.030000
-0.000000
0.000000
-0.010000
-0.010000
-0.020000
-0.030000
-0.030000
-0.020000
-0.020000
-0.040000
-0.060000
-0.060000
-0.050000
-0.040000
-0.040000
-0.050000
-0.030000
-0.010000
-0.010000
-0.010000
0.000000
0.050000
0.110000
0.170000
0.230000
0.290000
0.310000
0.280000
0.210000
0.140000
0.110000
0.090000
0.090000
0.070000
0.040000
0.010000
-0.010000
-0.020000
-0.040000
-0.050000
-0.040000
-0.030000
-0.030000
-0.050000
-0.060000
-0.050000
-0.030000
-0.020000
-0.040000
-0.060000
-0.060000
-0.070000
-0.080000
-0.100000
-0.100000
-0.070000
-0.040000
-0.020000
-0.040000
-0.050000
-0.050000
-0.030000
-0.020000
-0.020000
-0.010000
-0.010000
-0.020000
-0.040000
-0.040000
-0.020000
-0.010000
-0.030000
-0.070000
-0.090000
-0.070000
-0.050000
-0.030000
-0.010000
0.010000
-0.000000
-0.030000
-0.040000
-0.030000
-0.020000
-0.030000
-0.050000
-0.070000
-0.070000
-0.060000
-0.050000
-0.030000
-0.010000
-0.010000
-0.030000
-0.050000
-0.040000
-0.030000
-0.030000
-0.050000
-0.070000
-0.070000
-0.060000
-0.050000
-0.030000
-0.020000
-0.010000
-0.020000
-0.020000
-0.020000
-0.020000
-0.030000
-0.030000
-0.030000
-0.030000
-0.020000
-0.010000
-0.010000
-0.020000
-0.030000
-0.030000
-0.020000
-0.020000
-0.010000
-0.020000
-0.030000
-0.030000
-0.020000
-0.020000
-0.020000
-0.030000
-0.030000
-0.020000
-0.010000
-0.010000
-0.010000
-0.030000
-0.030000
-0.030000
-0.030000
-0.040000
-0.040000
-0.030000
-0.020000
-0.020000
-0.040000
-0.050000
-0.050000
-0.040000
-0.030000
-0.020000
-0.020000
-0.020000
-0.010000
-0.010000
-0.020000
-0.040000
-0.040000
-0.040000
-0.050000
-0.050000
-0.030000
-0.020000
-0.010000
-0.020000
-0.030000
-0.050000
-0.050000
-0.030000
-0.030000
-0.040000
-0.050000
-0.040000
-0.040000
-0.050000
-0.050000
-0.030000
0.010000
0.030000
0.020000
0.020000
0.010000
0.010000
-0.010000
-0.030000
-0.030000
-0.020000
-0.010000
-0.010000
-0.010000
0.000000
0.010000
0.000000
-0.010000
-0.020000
-0.020000
-0.010000
-0.020000
-0.030000
-0.040000
-0.040000
-0.040000
-0.060000
-0.070000
-0.060000
-0.050000
-0.040000
-0.030000
-0.020000
-0.020000
-0.020000
-0.040000
-0.060000
-0.050000
-0.030000
-0.010000
-0.010000
-0.030000
-0.040000
-0.040000
-0.030000
-0.030000
-0.040000
-0.050000
-0.050000
-0.040000
-0.020000
0.000000
0.010000
-0.010000
-0.040000
-0.070000
-0.080000
-0.070000
-0.070000
-0.060000
-0.060000
-0.070000
-0.080000
-0.090000
-0.080000
-0.040000
-0.020000
-0.030000
-0.040000
-0.030000
-0.000000
0.030000
0.080000
0.150000
0.220000
0.270000
0.300000
0.300000
0.300000
0.270000
0.230000
0.170000
0.100000
0.050000
0.010000
0.000000
0.000000
0.000000
-0.010000
-0.010000
-0.010000
-0.000000
-0.000000
-0.030000
-0.050000
-0.050000
-0.040000
-0.040000
-0.040000
-0.060000
-0.080000
-0.070000
-0.040000
-0.010000
-0.010000
-0.020000
-0.040000
-0.040000
-0.060000
-0.070000
-0.070000
-0.070000
-0.070000
-0.060000
-0.070000
-0.090000
-0.100000
-0.090000
-0.060000
-0.040000
-0.040000
-0.060000
-0.060000
-0.050000
-0.020000
0.010000
0.020000
0.010000
-0.010000
-0.040000
-0.050000
-0.070000
-0.090000
-0.110000
-0.100000
-0.060000
-0.020000
0.000000
0.010000
0.020000
0.030000
0.000000
-0.030000
-0.030000
-0.020000
-0.030000
-0.070000
-0.090000
-0.080000
-0.050000
-0.030000
-0.010000
-0.000000
0.000000
-0.020000
-0.040000
-0.060000
-0.060000
-0.050000
-0.040000
-0.020000
-0.010000
-0.030000
-0.040000
-0.010000
0.010000
-0.000000
-0.030000
-0.040000
-0.030000
-0.020000
-0.030000
-0.030000
-0.020000
-0.010000
-0.000000
0.000000
0.020000
0.030000
0.030000
0.020000
0.010000
-0.000000
-0.030000
-0.060000
-0.040000
-0.010000
0.020000
-0.000000
-0.030000
-0.040000
-0.030000
-0.030000
-0.030000
-0.040000
-0.040000
-0.040000
-0.010000
0.010000
0.020000
0.020000
0.030000
0.030000
-0.010000
-0.050000
-0.060000
-0.060000
-0.060000
-0.070000
-0.080000
-0.070000
-0.070000
-0.080000
-0.080000
-0.060000
-0.030000
-0.030000
-0.040000
-0.030000
0.000000
-0.000000
-0.040000
-0.070000
-0.060000
-0.020000
0.020000
0.020000
-0.000000
-0.020000
-0.010000
0.030000
0.060000
0.060000
0.020000
-0.010000
-0.010000
-0.020000
-0.050000
-0.070000
-0.080000
-0.070000
-0.040000
-0.010000
0.010000
0.000000
-0.020000
-0.030000
-0.010000
0.010000
0.000000
-0.020000
-0.020000
0.020000
0.060000
0.060000
0.000000
-0.050000
-0.080000
-0.060000
-0.040000
-0.020000
-0.020000
-0.030000
-0.050000
-0.070000
-0.070000
-0.020000
0.030000
0.030000
-0.020000
-0.060000
-0.090000
-0.090000
-0.070000
-0.030000
-0.020000
-0.050000
-0.070000
-0.060000
-0.050000
-0.060000
-0.060000
-0.040000
-0.030000
-0.030000
-0.040000
-0.050000
-0.040000
-0.040000
-0.030000
-0.020000
-0.000000
0.020000
0.040000
0.080000
0.130000
0.200000
0.270000
0.330000
0.340000
0.310000
0.260000
0.200000
0.140000
0.090000
0.050000
0.040000
0.020000
-0.000000
-0.010000
-0.010000
-0.020000
-0.060000
-0.100000
-0.100000
-0.080000
-0.060000
-0.060000
-0.080000
-0.070000
-0.050000
-0.040000
-0.040000
-0.040000
-0.030000
-0.020000
-0.030000
-0.060000
-0.070000
-0.050000
0.000000
0.030000
0.010000
-0.040000
-0.070000
-0.070000
-0.060000
-0.060000
-0.040000
-0.030000
-0.030000
-0.040000
-0.060000
-0.060000
-0.050000
-0.050000
-0.050000
-0.040000
-0.030000
-0.030000
-0.040000
-0.050000
-0.040000
-0.010000
-0.000000
-0.030000
-0.060000
-0.070000
-0.040000
-0.030000
-0.050000
-0.070000
-0.050000
-0.040000
-0.040000
-0.040000
-0.040000
-0.020000
-0.000000
-0.010000
-0.020000
-0.030000
-0.020000
-0.020000
-0.010000
-0.010000
-0.010000
0.000000
0.010000
0.020000
0.030000
0.030000
0.020000
0.010000
0.020000
0.020000
0.020000
-0.000000
-0.020000
-0.030000
-0.030000
-0.030000
-0.010000
0.010000
0.040000
0.050000
0.040000
0.020000
-0.000000
-0.010000
-0.020000
-0.020000
-0.010000
0.010000
0.020000
0.020000
-0.000000
-0.030000
-0.050000
-0.060000
-0.040000
-0.020000
-0.010000
-0.020000
-0.020000
-0.020000
-0.030000
-0.050000
-0.050000
-0.040000
-0.030000
-0.010000
-0.010000
-0.010000
-0.010000
0.010000
0.020000
0.030000
0.010000
0.010000
0.000000
-0.010000
-0.020000
-0.040000
-0.040000
-0.030000
-0.010000
0.010000
0.010000
0.000000
-0.010000
-0.040000
-0.060000
-0.060000
-0.040000
-0.000000
0.020000
0.030000
0.040000
0.020000
0.010000
0.010000
0.020000
0.020000
0.010000
0.010000
0.020000
0.030000
0.030000
0.040000
0.040000
0.050000
0.040000
0.030000
-0.000000
-0.050000
-0.070000
-0.040000
0.010000
0.030000
0.030000
0.020000
0.020000
0.020000
0.000000
-0.020000
-0.040000
-0.030000
-0.010000
0.020000
0.030000
0.030000
0.020000
0.020000
0.010000
-0.020000
-0.040000
-0.040000
-0.030000
-0.020000
-0.010000
-0.000000
0.000000
-0.000000
-0.020000
-0.030000
-0.040000
-0.040000
-0.050000
-0.060000
-0.030000
0.020000
0.050000
0.040000
0.010000
-0.010000
-0.010000
-0.010000
-0.020000
-0.030000
-0.020000
-0.010000
-0.000000
-0.000000
-0.010000
-0.010000
0.000000
0.030000
0.070000
0.120000
0.180000
0.260000
0.310000
0.330000
0.310000
0.260000
0.220000
0.170000
0.110000
0.050000
0.010000
-0.000000
0.010000
0.010000
0.010000
0.000000
0.010000
0.010000
0.000000
-0.020000
-0.030000
-0.010000
0.010000
0.000000
-0.020000
-0.030000
-0.030000
-0.020000
-0.030000
-0.030000
-0.020000
0.000000
0.020000
0.020000
0.010000
-0.000000
-0.000000
0.020000
0.040000
0.040000
0.030000
0.020000
0.020000
0.020000
0.000000
-0.020000
-0.040000
-0.050000
-0.050000
-0.060000
-0.050000
-0.020000
-0.000000
0.010000
-0.000000
-0.010000
-0.010000
-0.010000
-0.000000
0.000000
0.010000
0.020000
0.030000
0.020000
0.010000
0.000000
-0.000000
0.000000
0.010000
0.020000
0.030000
0.030000
0.030000
0.020000
-0.000000
-0.020000
-0.010000
0.010000
0.040000
0.050000
0.050000
0.050000
0.050000
0.040000
0.040000
0.040000
0.050000
0.050000
0.040000
0.020000
0.010000
0.020000
0.030000
0.050000
0.060000
0.060000
0.060000
0.050000
0.020000
0.000000
0.020000
0.040000
0.050000
0.040000
0.030000
0.030000
0.020000
0.010000
0.010000
0.010000
0.010000
0.010000
0.030000
0.050000
0.060000
0.040000
0.010000
-0.010000
0.010000
0.030000
0.040000
0.030000
0.020000
0.020000
0.020000
0.020000
0.030000
0.030000
0.030000
0.030000
0.000000
-0.020000
-0.000000
0.030000
0.050000
0.030000
0.000000
-0.010000
-0.000000
0.010000
0.010000
-0.010000
-0.020000
-0.030000
-0.030000
-0.010000
0.020000
0.040000
0.030000
-0.000000
-0.020000
0.000000
0.030000
0.030000
0.030000
0.050000
0.080000
0.110000
0.100000
0.080000
0.060000
0.040000
0.020000
0.020000
0.050000
0.080000
0.080000
0.050000
0.030000
0.020000
0.000000
-0.010000
-0.020000
-0.010000
0.000000
0.020000
0.030000
0.040000
0.030000
0.030000
0.030000
0.020000
0.020000
0.010000
0.020000
0.020000
0.020000
-0.000000
-0.010000
-0.010000
0.010000
0.010000
-0.020000
-0.040000
-0.030000
0.000000
0.030000
0.030000
0.010000
-0.020000
-0.020000
0.010000
0.040000
0.050000
0.040000
-0.000000
-0.020000
0.000000
0.040000
0.040000
0.010000
-0.010000
-0.010000
0.010000
0.020000
0.010000
0.000000
0.020000
0.040000
0.070000
0.100000
0.140000
0.200000
0.250000
0.280000
0.270000
0.240000
0.210000
0.180000
0.140000
0.110000
0.080000
0.040000
0.020000
-0.000000
0.000000
0.020000
0.030000
0.030000
0.020000
0.010000
-0.010000
-0.010000
-0.020000
-0.030000
-0.040000
-0.030000
-0.020000
-0.020000
-0.040000
-0.030000
-0.020000
-0.040000
-0.050000
-0.040000
0.010000
0.030000
0.010000
-0.020000
-0.030000
-0.010000
0.020000
0.020000
0.010000
-0.010000
-0.020000
-0.020000
0.000000
0.020000
0.000000
-0.010000
-0.010000
-0.020000
-0.050000
-0.060000
-0.030000
0.000000
0.020000
0.020000
0.010000
0.010000
0.020000
0.030000
0.030000
0.030000
0.030000
0.030000
0.010000
-0.010000
-0.010000
0.000000
0.000000
-0.010000
-0.020000
-0.020000
-0.030000
-0.030000
-0.010000
0.020000
0.020000
0.020000
0.020000
0.030000
0.030000
0.000000
-0.040000
-0.040000
-0.020000
-0.010000
-0.020000
-0.050000
-0.050000
-0.010000
0.020000
0.030000
0.030000
0.020000
0.010000
0.020000
0.030000
0.030000
0.020000
0.000000
-0.010000
-0.010000
0.010000
0.020000
0.020000
-0.000000
-0.010000
0.000000
0.020000
0.030000
0.020000
-0.010000
-0.030000
-0.030000
-0.020000
-0.010000
-0.020000
-0.040000
-0.050000
-0.060000
-0.070000
-0.060000
-0.040000
-0.020000
-0.020000
-0.030000
-0.050000
-0.050000
-0.040000
-0.020000
-0.000000
0.000000
-0.020000
-0.030000
-0.020000
0.010000
0.030000
0.020000
0.000000
-0.020000
-0.020000
-0.000000
0.010000
0.010000
-0.010000
-0.010000
-0.010000
-0.010000
-0.020000
-0.030000
-0.040000
-0.050000
-0.040000
-0.020000
0.010000
0.040000
0.040000
0.020000
0.000000
0.000000
0.020000
0.030000
0.010000
-0.000000
-0.010000
-0.020000
-0.030000
-0.030000
-0.010000
0.000000
0.010000
0.010000
0.010000
0.000000
-0.020000
-0.040000
-0.060000
-0.050000
-0.020000
-0.000000
-0.010000
-0.030000
-0.060000
-0.070000
-0.070000
-0.060000
-0.040000
-0.040000
-0.050000
-0.060000
-0.050000
-0.040000
-0.030000
-0.020000
-0.010000
0.010000
0.010000
-0.000000
-0.030000
-0.040000
-0.040000
-0.020000
-0.010000
-0.040000
-0.060000
-0.070000
-0.050000
-0.050000
-0.060000
-0.060000
-0.050000
-0.030000
-0.020000
-0.030000
-0.030000
-0.030000
-0.030000
-0.030000
-0.030000
-0.040000
-0.060000
-0.030000
0.040000
0.120000
0.170000
0.220000
0.250000
0.260000
0.240000
0.200000
0.160000
0.120000
0.090000
0.060000
0.030000
0.000000
-0.010000
-0.010000
-0.000000
-0.000000
-0.010000
-0.020000
-0.040000
-0.060000
-0.070000
-0.070000
-0.050000
-0.040000
-0.040000
-0.050000
-0.070000
-0.070000
-0.070000
-0.070000
-0.060000
-0.040000
-0.030000
-0.030000
-0.040000
-0.040000
-0.030000
-0.030000
-0.050000
-0.050000
-0.040000
-0.040000
-0.040000
-0.030000
-0.010000
-0.010000
-0.020000
-0.040000
-0.050000
-0.050000
-0.050000
-0.050000
-0.040000
-0.040000
-0.060000
-0.060000
-0.050000
-0.040000
-0.030000
-0.040000
-0.050000
-0.050000
-0.040000
-0.030000
-0.030000
-0.040000
-0.040000
-0.040000
-0.040000
-0.040000
-0.050000
-0.050000
-0.040000
-0.030000
-0.030000
-0.020000
-0.010000
-0.010000
-0.020000
-0.030000
-0.030000
-0.030000
-0.040000
-0.030000
-0.010000
0.000000
-0.010000
-0.020000
-0.040000
-0.040000
-0.040000
-0.020000
-0.010000
0.000000
-0.000000
-0.020000
-0.040000
-0.040000
-0.040000
-0.030000
-0.030000
-0.040000
-0.050000
-0.040000
-0.030000
-0.030000
-0.040000
-0.040000
-0.020000
0.000000
0.000000
-0.010000
-0.020000
-0.040000
-0.070000
-0.070000
-0.050000
-0.050000
-0.050000
-0.040000
-0.030000
-0.030000
-0.020000
-0.020000
-0.030000
-0.040000
-0.040000
-0.040000
-0.020000
-0.010000
-0.010000
-0.010000
-0.020000
-0.030000
-0.020000
-0.010000
-0.000000
-0.010000
-0.020000
-0.030000
-0.030000
-0.030000
-0.050000
-0.060000
-0.050000
-0.020000
-0.010000
-0.020000
-0.030000
-0.030000
-0.020000
-0.030000
-0.020000
-0.010000
0.010000
0.020000
0.020000
0.020000
0.030000
0.040000
0.050000
0.050000
0.020000
-0.010000
-0.030000
-0.030000
-0.020000
-0.000000
-0.000000
-0.020000
-0.030000
-0.040000
-0.040000
-0.030000
-0.020000
-0.020000
-0.020000
-0.030000
-0.040000
-0.040000
-0.040000
-0.040000
-0.030000
-0.020000
-0.010000
-0.010000
-0.030000
-0.040000
-0.040000
-0.030000
-0.030000
-0.030000
-0.030000
-0.040000
-0.040000
-0.040000
-0.030000
-0.020000
-0.010000
-0.000000
0.000000
-0.010000
-0.030000
-0.040000
-0.040000
-0.030000
-0.030000
-0.030000
-0.040000
-0.030000
-0.020000
-0.020000
-0.020000
-0.030000
-0.050000
-0.060000
-0.080000
-0.080000
-0.060000
-0.040000
-0.020000
0.000000
0.040000
0.110000
0.190000
0.270000
0.340000
0.360000
0.330000
0.260000
0.200000
0.150000
0.120000
0.080000
0.050000
0.020000
-0.000000
-0.010000
-0.020000
-0.030000
-0.040000
-0.040000
-0.040000
-0.040000
-0.040000
-0.030000
-0.030000
-0.040000
-0.060000
-0.060000
-0.050000
-0.030000
-0.000000
0.000000
-0.010000
-0.030000
-0.040000
-0.040000
-0.040000
-0.040000
-0.050000
-0.060000
-0.060000
-0.040000
-0.020000
-0.020000
-0.020000
-0.030000
-0.030000
-0.030000
-0.040000
-0.060000
-0.050000
-0.030000
-0.010000
-0.020000
-0.050000
-0.070000
-0.060000
-0.040000
-0.040000
-0.040000
-0.030000
-0.010000
-0.000000
-0.010000
-0.030000
-0.040000
-0.040000
-0.030000
-0.010000
0.010000
0.010000
-0.010000
-0.020000
-0.020000
-0.000000
0.000000
-0.010000
-0.020000
-0.030000
-0.020000
-0.010000
-0.010000
-0.020000
-0.030000
-0.040000
-0.060000
-0.060000
-0.050000
-0.050000
-0.050000
-0.030000
-0.010000
-0.000000
-0.000000
-0.000000
0.000000
0.010000
0.010000
0.020000
0.030000
0.030000
0.010000
-0.000000
-0.000000
0.000000
0.000000
0.000000
0.010000
-0.000000
-0.020000
-0.010000
-0.010000
-0.000000
-0.010000
-0.020000
-0.020000
-0.000000
0.010000
0.010000
0.000000
-0.010000
-0.010000
-0.010000
-0.010000
-0.020000
-0.020000
-0.030000
-0.010000
-0.000000
0.000000
0.000000
0.010000
0.010000
-0.000000
-0.010000
-0.010000
-0.000000
-0.010000
-0.020000
-0.020000
-0.010000
-0.010000
-0.020000
-0.020000
-0.020000
-0.020000
-0.020000
-0.020000
-0.010000
-0.000000
-0.000000
-0.010000
-0.010000
-0.010000
-0.010000
0.010000
0.020000
0.030000
0.030000
0.030000
0.030000
0.030000
0.020000
0.020000
0.020000
0.020000
0.010000
-0.000000
-0.000000
-0.000000
-0.010000
-0.020000
-0.010000
-0.010000
-0.020000
-0.030000
-0.030000
-0.010000
-0.010000
-0.010000
-0.020000
-0.010000
-0.010000
-0.010000
-0.020000
-0.010000
-0.000000
0.000000
-0.000000
-0.010000
-0.020000
-0.030000
-0.030000
-0.030000
-0.020000
-0.020000
-0.030000
-0.030000
-0.020000
-0.010000
-0.030000
-0.040000
-0.050000
-0.040000
-0.030000
-0.030000
-0.030000
-0.020000
-0.000000
0.010000
0.020000
0.020000
0.010000
-0.010000
-0.030000
-0.030000
-0.010000
-0.000000
-0.010000
-0.020000
-0.020000
-0.020000
-0.010000
0.020000
0.080000
0.160000
0.240000
0.300000
0.340000
0.340000
0.300000
0.250000
0.200000
0.160000
0.130000
0.090000
0.060000
0.040000
0.020000
-0.000000
-0.000000
-0.000000
-0.000000
-0.010000
-0.010000
-0.020000
-0.030000
-0.030000
-0.030000
-0.040000
-0.040000
-0.040000
-0.040000
-0.040000
-0.050000
-0.050000
-0.040000
-0.040000
-0.030000
-0.030000
-0.020000
-0.030000
-0.030000
-0.040000
-0.040000
-0.040000
-0.020000
-0.010000
-0.000000
-0.010000
-0.030000
-0.040000
-0.040000
-0.030000
-0.020000
-0.010000
-0.000000
-0.010000
-0.010000
-0.020000
-0.030000
-0.040000
-0.050000
-0.040000
-0.030000
-0.030000
-0.030000
-0.010000
0.010000
0.010000
0.010000
0.000000
0.000000
0.010000
0.020000
0.010000
0.010000
0.010000
0.020000
0.020000
0.000000
-0.010000
-0.010000
-0.000000
-0.000000
-0.010000
-0.020000
-0.030000
-0.020000
-0.010000
0.000000
0.010000
0.020000
0.020000
0.010000
0.000000
0.010000
0.010000
-0.000000
-0.010000
-0.010000
-0.010000
-0.010000
-0.010000
0.000000
0.020000
0.010000
0.000000
0.010000
0.020000
0.030000
0.030000
0.030000
0.030000
0.020000
0.010000
0.010000
0.000000
0.010000
0.010000
0.010000
0.010000
0.000000
-0.000000
-0.000000
-0.010000
-0.010000
-0.020000
-0.010000
0.000000
0.010000
0.010000
0.010000
-0.000000
-0.010000
-0.010000
-0.010000
-0.010000
-0.010000
-0.030000
-0.040000
-0.030000
-0.010000
0.020000
0.030000
0.010000
-0.010000
-0.000000
0.010000
0.010000
0.000000
-0.000000
-0.000000
-0.000000
-0.000000
0.000000
0.010000
0.030000
0.030000
0.040000
0.030000
0.030000
0.030000
0.020000
0.020000
0.010000
0.020000
0.040000
0.060000
0.060000
0.040000
0.020000
0.010000
0.010000
0.010000
0.000000
0.000000
0.000000
0.000000
-0.010000
-0.020000
-0.020000
-0.010000
-0.010000
-0.020000
-0.020000
-0.020000
-0.000000
0.010000
0.010000
0.000000
-0.000000
0.000000
0.010000
0.010000
0.000000
0.010000
0.000000
-0.000000
-0.010000
-0.010000
-0.010000
-0.000000
0.000000
0.010000
0.000000
0.000000
0.000000
0.010000
0.010000
-0.000000
-0.010000
-0.010000
-0.010000
-0.010000
-0.020000
-0.030000
-0.030000
-0.010000
0.000000
0.010000
0.010000
0.010000
-0.000000
-0.010000
-0.020000
-0.020000
-0.010000
0.030000
0.080000
0.140000
0.200000
0.260000
0.290000
0.300000
0.270000
0.240000
0.190000
0.130000
0.090000
0.070000
0.050000
0.040000
0.040000
0.030000
0.030000
0.020000
0.020000
0.020000
0.010000
-0.010000
-0.030000
-0.030000
-0.020000
-0.010000
-0.010000
-0.000000
0.000000
-0.010000
-0.030000
-0.040000
-0.030000
-0.010000
-0.010000
-0.020000
-0.020000
-0.010000
-0.010000
-0.010000
-0.020000
-0.020000
-0.010000
-0.010000
-0.010000
-0.010000
-0.010000
-0.010000
-0.020000
-0.030000
-0.020000
-0.010000
-0.000000
-0.010000
-0.000000
0.010000
0.030000
0.020000
0.000000
-0.010000
0.000000
0.020000
0.030000
0.040000
0.030000
0.030000
0.030000
0.020000
0.010000
0.000000
0.000000
0.010000
0.020000
0.010000
-0.000000
-0.000000
0.010000
0.020000
0.010000
-0.000000
-0.010000
-0.020000
-0.020000
-0.010000
0.020000
0.040000
0.040000
0.030000
0.020000
0.020000
0.030000
0.030000
0.030000
0.020000
0.020000
0.020000
0.020000
0.010000
0.020000
0.040000
0.040000
0.030000
0.010000
-0.010000
-0.020000
0.000000
0.030000
0.040000
0.040000
0.040000
0.040000
0.030000
0.020000
0.010000
0.020000
0.020000
0.020000
0.020000
0.010000
0.000000
0.000000
0.020000
0.030000
0.030000
0.030000
0.040000
0.040000
0.040000
0.030000
0.020000
0.020000
0.010000
0.000000
-0.000000
-0.000000
-0.000000
-0.000000
0.000000
0.020000
0.020000
0.010000
0.010000
0.020000
0.030000
0.020000
0.010000
-0.000000
-0.010000
-0.010000
0.010000
0.030000
0.040000
0.050000
0.050000
0.050000
0.040000
0.050000
0.050000
0.060000
0.070000
0.070000
0.070000
0.060000
0.050000
0.040000
0.030000
0.020000
-0.000000
-0.010000
-0.010000
0.000000
0.020000
0.020000
0.010000
0.010000
0.020000
0.020000
0.020000
0.020000
0.030000
0.030000
0.030000
0.010000
0.000000
-0.000000
-0.010000
-0.010000
-0.000000
0.010000
0.020000
0.020000
0.010000
0.010000
0.010000
0.010000
0.010000
-0.000000
-0.010000
-0.000000
0.010000
0.000000
-0.000000
-0.010000
-0.000000
0.000000
0.010000
0.010000
0.020000
0.030000
0.030000
0.030000
0.040000
0.040000
0.040000
0.030000
0.010000
-0.000000
-0.010000
-0.010000
-0.000000
0.020000
0.050000
0.110000
0.170000
0.220000
0.270000
0.300000
0.290000
0.260000
0.210000
0.180000
0.150000
0.120000
0.090000
0.060000
0.040000
0.020000
0.020000
0.010000
0.000000
-0.000000
-0.010000
-0.000000
0.000000
0.010000
-0.000000
-0.010000
-0.020000
-0.040000
-0.040000
-0.030000
-0.010000
-0.010000
-0.020000
-0.020000
-0.030000
-0.020000
-0.010000
0.010000
0.010000
-0.020000
-0.040000
-0.030000
-0.010000
0.010000
0.030000
0.030000
0.030000
0.020000
0.020000
0.020000
0.020000
0.020000
0.010000
0.000000
0.000000
0.000000
0.000000
0.010000
0.020000
0.030000
0.030000
0.020000
0.020000
0.020000
0.010000
-0.000000
-0.010000
0.000000
0.020000
0.030000
0.020000
0.000000
-0.000000
0.010000
0.020000
0.020000
0.010000
0.000000
0.000000
0.010000
0.020000
0.020000
0.010000
0.020000
0.030000
0.040000
0.050000
0.040000
0.030000
0.020000
0.020000
0.030000
0.020000
0.010000
0.010000
0.020000
0.020000
0.020000
0.010000
0.020000
0.030000
0.030000
0.030000
0.030000
0.040000
0.030000
0.010000
-0.000000
-0.010000
-0.000000
0.000000
0.000000
-0.000000
-0.000000
0.000000
0.000000
0.010000
0.000000
-0.010000
-0.020000
-0.020000
-0.030000
-0.020000
-0.010000
0.010000
0.010000
0.000000
-0.000000
0.010000
0.020000
0.020000
-0.010000
-0.020000
-0.010000
0.010000
0.010000
0.010000
-0.010000
-0.020000
-0.020000
-0.010000
-0.010000
-0.030000
-0.040000
-0.040000
-0.030000
-0.010000
0.000000
0.010000
-0.000000
-0.010000
0.010000
0.030000
0.020000
-0.000000
-0.010000
-0.000000
0.010000
0.010000
0.010000
0.010000
0.010000
0.020000
0.020000
0.010000
0.010000
0.020000
0.040000
0.030000
0.010000
-0.000000
-0.010000
-0.010000
-0.000000
0.000000
0.000000
-0.000000
-0.010000
-0.020000
-0.040000
-0.050000
-0.040000
-0.030000
-0.040000
-0.040000
-0.020000
0.010000
0.010000
0.010000
0.010000
0.010000
-0.000000
-0.020000
-0.020000
-0.000000
0.010000
0.010000
-0.020000
-0.030000
-0.030000
-0.010000
-0.000000
0.000000
0.000000
0.000000
0.000000
-0.000000
-0.010000
-0.010000
-0.010000
-0.020000
-0.030000
-0.030000
-0.010000
-0.000000
-0.010000
-0.030000
-0.030000
-0.020000
-0.020000
-0.030000
-0.050000
-0.050000
-0.040000
-0.030000
-0.010000
0.030000
0.060000
0.110000
0.170000
0.240000
0.290000
0.290000
0.250000
0.200000
0.150000
0.110000
0.070000
0.040000
0.020000
0.010000
-0.010000
-0.020000
-0.030000
-0.040000
-0.040000
-0.040000
-0.050000
-0.050000
-0.040000
-0.030000
-0.020000
-0.020000
-0.020000
-0.020000
-0.030000
-0.040000
-0.050000
-0.060000
-0.060000
-0.050000
-0.040000
-0.040000
-0.040000
-0.050000
-0.040000
-0.030000
-0.020000
-0.030000
-0.030000
-0.040000
-0.040000
-0.040000
-0.030000
-0.030000
-0.030000
-0.030000
-0.020000
-0.010000
-0.020000
-0.030000
-0.030000
-0.030000
-0.020000
-0.020000
-0.040000
-0.060000
-0.060000
-0.050000
-0.030000
-0.030000
-0.030000
-0.030000
-0.040000
-0.040000
-0.040000
-0.030000
-0.020000
-0.010000
-0.010000
-0.030000
-0.040000
-0.050000
-0.030000
-0.010000
-0.010000
-0.020000
-0.020000
-0.030000
-0.030000
-0.030000
-0.040000
-0.040000
-0.020000
-0.000000
-0.010000
-0.030000
-0.040000
-0.010000
0.000000
-0.010000
-0.030000
-0.030000
-0.020000
-0.020000
-0.030000
-0.030000
-0.020000
0.000000
0.010000
-0.010000
-0.030000
-0.040000
-0.030000
-0.010000
-0.000000
-0.010000
-0.020000
-0.040000
-0.050000
-0.070000
-0.080000
-0.070000
-0.050000
-0.040000
-0.030000
-0.030000
-0.020000
-0.020000
-0.010000
-0.010000
-0.020000
-0.020000
-0.030000
-0.030000
-0.040000
-0.050000
-0.040000
-0.020000
-0.010000
-0.010000
-0.000000
-0.000000
-0.010000
-0.020000
-0.030000
-0.030000
-0.030000
-0.030000
-0.030000
-0.040000
-0.050000
-0.040000
-0.030000
-0.010000
-0.010000
-0.010000
-0.000000
-0.000000
0.000000
-0.000000
0.000000
0.010000
0.020000
0.030000
0.010000
-0.000000
-0.010000
0.000000
0.010000
0.010000
0.010000
-0.000000
-0.020000
-0.030000
-0.030000
-0.030000
-0.040000
-0.040000
-0.030000
-0.020000
-0.020000
-0.030000
-0.040000
-0.040000
-0.040000
-0.050000
-0.050000
-0.040000
-0.040000
-0.040000
-0.020000
-0.020000
-0.020000
-0.040000
-0.030000
-0.030000
-0.030000
-0.050000
-0.060000
-0.040000
-0.030000
-0.020000
-0.030000
-0.030000
-0.030000
-0.030000
-0.040000
-0.040000
-0.040000
-0.040000
-0.040000
-0.050000
-0.050000
-0.040000
-0.030000
-0.020000
-0.030000
-0.050000
-0.060000
-0.060000
-0.050000
-0.040000
-0.040000
-0.040000
-0.020000
-0.000000
0.020000
0.070000
0.150000
0.230000
0.300000
0.320000
0.300000
0.250000
0.200000
0.160000
0.120000
0.090000
0.060000
0.030000
0.010000
-0.000000
-0.010000
-0.020000
-0.030000
-0.030000
-0.030000
-0.050000
-0.060000
-0.050000
-0.040000
-0.030000
-0.040000
-0.050000
-0.060000
-0.060000
-0.040000
-0.030000
-0.040000
-0.050000
-0.050000
-0.050000
-0.060000
-0.060000
-0.060000
-0.060000
-0.060000
-0.050000
-0.040000
-0.040000
-0.060000
-0.060000
-0.060000
-0.050000
-0.040000
-0.040000
-0.040000
-0.030000
-0.030000
-0.030000
-0.020000
-0.010000
-0.010000
-0.020000
-0.040000
-0.050000
-0.050000
-0.050000
-0.040000
-0.040000
-0.050000
-0.040000
-0.040000
-0.030000
-0.040000
-0.050000
-0.060000
-0.050000
-0.030000
-0.010000
-0.020000
-0.030000
-0.040000
-0.040000
-0.030000
-0.020000
-0.010000
-0.010000
-0.020000
-0.030000
-0.030000
-0.030000
-0.030000
-0.020000
-0.010000
-0.020000
-0.020000
-0.010000
-0.010000
-0.010000
-0.020000
-0.030000
-0.020000
-0.010000
-0.010000
-0.020000
-0.030000
-0.020000
-0.010000
-0.010000
-0.010000
-0.010000
-0.010000
-0.010000
-0.020000
-0.020000
-0.020000
-0.030000
-0.030000
-0.020000
-0.000000
0.010000
0.000000
-0.010000
-0.020000
-0.030000
-0.040000
-0.040000
-0.040000
-0.040000
-0.050000
-0.040000
-0.020000
-0.020000
-0.030000
-0.050000
-0.050000
-0.030000
-0.010000
-0.010000
-0.020000
-0.030000
-0.040000
-0.040000
-0.040000
-0.040000
-0.030000
-0.030000
-0.030000
-0.030000
-0.040000
-0.040000
-0.040000
-0.040000
-0.040000
-0.030000
-0.020000
-0.010000
-0.000000
0.010000
0.010000
0.000000
-0.010000
-0.010000
0.000000
0.010000
0.020000
0.020000
0.020000
0.010000
-0.010000
-0.030000
-0.050000
-0.050000
-0.040000
-0.040000
-0.030000
-0.040000
-0.040000
-0.050000
-0.040000
-0.040000
-0.040000
-0.050000
-0.050000
-0.040000
-0.020000
-0.020000
-0.030000
-0.030000
-0.030000
-0.040000
-0.040000
-0.030000
-0.020000
-0.020000
-0.040000
-0.060000
-0.060000
-0.040000
-0.030000
-0.030000
-0.040000
-0.060000
-0.070000
-0.080000
-0.090000
-0.080000
-0.060000
-0.040000
-0.040000
-0.050000
-0.060000
-0.070000
-0.070000
-0.050000
-0.030000
-0.030000
-0.040000
-0.040000
-0.040000
-0.050000
-0.060000
-0.070000
-0.070000
-0.060000
-0.020000
0.030000
0.090000
0.160000
0.240000
0.300000
0.320000
0.290000
0.230000
0.170000
0.120000
0.080000
0.050000
0.020000
0.000000
-0.010000
-0.030000
-0.060000
-0.080000
-0.090000
-0.080000
-0.070000
-0.070000
-0.060000
-0.050000
-0.050000
-0.050000
-0.050000
-0.060000
-0.070000
-0.070000
-0.060000
-0.040000
-0.040000
-0.050000
-0.070000
-0.070000
-0.070000
-0.070000
-0.080000
-0.090000
-0.090000
-0.090000
-0.090000
-0.090000
-0.090000
-0.090000
-0.070000
-0.060000
-0.060000
-0.050000
-0.050000
-0.050000
-0.050000
-0.040000
-0.040000
-0.040000
-0.060000
-0.070000
-0.070000
-0.060000
-0.060000
-0.060000
-0.060000
-0.060000
-0.060000
-0.060000
-0.070000
-0.060000
-0.060000
-0.050000
-0.050000
-0.050000
-0.050000
-0.060000
-0.060000
-0.070000
-0.070000
-0.060000
-0.060000
-0.060000
-0.060000
-0.060000
-0.060000
-0.070000
-0.080000
-0.080000
-0.070000
-0.060000
-0.050000
-0.050000
-0.050000
-0.040000
-0.040000
-0.050000
-0.070000
-0.070000
-0.060000
-0.040000
-0.030000
-0.020000
-0.020000
-0.020000
-0.030000
-0.040000
-0.050000
-0.050000
-0.040000
-0.030000
-0.020000
-0.030000
-0.040000
-0.040000
-0.050000
-0.050000
-0.050000
-0.050000
-0.050000
-0.060000
-0.070000
-0.080000
-0.070000
-0.060000
-0.060000
-0.070000
-0.070000
-0.070000
-0.060000
-0.050000
-0.050000
-0.060000
-0.060000
-0.060000
-0.040000
-0.030000
-0.030000
-0.040000
-0.040000
-0.040000
-0.040000
-0.050000
-0.060000
-0.070000
-0.070000
-0.060000
-0.050000
-0.050000
-0.050000
-0.050000
-0.040000
-0.030000
-0.040000
-0.040000
-0.050000
-0.060000
-0.060000
-0.050000
-0.040000
-0.030000
-0.010000
0.000000
0.010000
0.000000
-0.010000
-0.030000
-0.050000
-0.040000
-0.030000
-0.010000
-0.020000
-0.050000
-0.070000
-0.080000
-0.080000
-0.080000
-0.080000
-0.070000
-0.060000
-0.060000
-0.070000
-0.070000
-0.060000
-0.070000
-0.070000
-0.060000
-0.040000
-0.030000
-0.030000
-0.040000
-0.050000
-0.060000
-0.060000
-0.040000
-0.030000
-0.040000
-0.050000
-0.060000
-0.060000
-0.060000
-0.070000
-0.070000
-0.070000
-0.060000
-0.060000
-0.050000
-0.030000
-0.030000
-0.040000
-0.060000
-0.060000
-0.060000
-0.060000
-0.060000
-0.050000
-0.060000
-0.080000
-0.100000
-0.100000
-0.080000
-0.060000
-0.040000
-0.040000
-0.020000
0.020000
0.070000
0.140000
0.210000
0.270000
0.310000
0.290000
0.220000
0.150000
0.110000
0.080000
0.050000
0.030000
0.010000
0.000000
-0.000000
0.000000
-0.000000
-0.030000
-0.060000
-0.080000
-0.080000
-0.090000
-0.090000
-0.090000
-0.080000
-0.080000
-0.080000
-0.080000
-0.090000
-0.090000
-0.080000
-0.080000
-0.070000
-0.070000
-0.070000
-0.070000
-0.070000
-0.060000
-0.060000
-0.070000
-0.080000
-0.070000
-0.060000
-0.060000
-0.050000
-0.050000
-0.040000
-0.050000
-0.060000
-0.060000
-0.050000
-0.040000
-0.040000
-0.050000
-0.060000
-0.050000
-0.030000
-0.040000
-0.050000
-0.060000
-0.060000
-0.050000
-0.040000
-0.030000
-0.030000
-0.040000
-0.050000
-0.050000
-0.050000
-0.040000
-0.040000
-0.040000
-0.040000
-0.030000
-0.030000
-0.030000
-0.030000
-0.030000
-0.020000
-0.010000
-0.030000
-0.050000
-0.060000
-0.060000
-0.040000
-0.030000
-0.020000
-0.030000
-0.030000
-0.030000
-0.040000
-0.050000
-0.060000
-0.050000
-0.040000
-0.040000
-0.040000
-0.040000
-0.040000
-0.030000
-0.020000
-0.000000
0.010000
0.010000
0.010000
0.000000
-0.010000
-0.010000
-0.020000
-0.020000
-0.030000
-0.020000
-0.000000
-0.000000
-0.020000
-0.030000
-0.040000
-0.040000
-0.040000
-0.040000
-0.030000
-0.030000
-0.030000
-0.030000
-0.040000
-0.050000
-0.050000
-0.040000
-0.030000
-0.030000
-0.040000
-0.040000
-0.040000
-0.030000
-0.030000
-0.020000
-0.020000
-0.010000
-0.010000
-0.010000
-0.020000
-0.030000
-0.030000
-0.020000
-0.010000
-0.010000
-0.000000
-0.000000
-0.010000
-0.010000
-0.020000
-0.030000
-0.020000
-0.010000
-0.000000
-0.010000
-0.010000
0.000000
0.020000
0.020000
-0.000000
-0.010000
-0.000000
0.020000
0.030000
0.020000
0.000000
-0.010000
-0.010000
-0.020000
-0.030000
-0.020000
-0.010000
-0.010000
-0.000000
-0.000000
-0.010000
-0.030000
-0.050000
-0.040000
-0.020000
-0.010000
-0.010000
-0.010000
-0.020000
-0.020000
-0.020000
-0.020000
-0.030000
-0.040000
-0.050000
-0.050000
-0.050000
-0.050000
-0.040000
-0.030000
-0.010000
-0.000000
0.010000
0.010000
-0.010000
-0.020000
-0.020000
-0.010000
-0.010000
-0.020000
-0.030000
-0.040000
-0.040000
-0.030000
-0.020000
-0.010000
-0.010000
-0.020000
-0.020000
-0.010000
-0.010000
-0.020000
-0.030000
-0.040000
-0.040000
-0.020000
0.030000
0.100000
0.170000
0.250000
0.310000
0.310000
0.270000
0.210000
0.160000
0.120000
0.090000
0.070000
0.060000
0.040000
0.010000
-0.020000
-0.030000
-0.040000
-0.030000
-0.020000
-0.010000
-0.010000
-0.020000
-0.020000
-0.030000
-0.030000
-0.030000
-0.040000
-0.050000
-0.060000
-0.070000
-0.080000
-0.080000
-0.080000
-0.060000
-0.040000
-0.030000
-0.030000
-0.020000
-0.010000
-0.010000
-0.020000
-0.030000
-0.030000
-0.040000
-0.030000
-0.020000
0.000000
0.010000
0.010000
0.000000
0.000000
-0.000000
-0.010000
-0.030000
-0.040000
-0.020000
-0.010000
-0.010000
-0.020000
-0.020000
-0.020000
-0.020000
-0.020000
-0.020000
-0.000000
0.010000
0.010000
0.010000
0.010000
0.010000
0.010000
0.010000
-0.000000
-0.010000
-0.010000
-0.020000
-0.030000
-0.030000
-0.020000
-0.010000
-0.010000
-0.020000
-0.010000
0.000000
0.010000
-0.000000
-0.020000
-0.030000
-0.020000
0.000000
0.020000
0.020000
0.020000
0.010000
0.020000
0.020000
0.020000
0.010000
0.010000
0.020000
0.010000
-0.000000
-0.010000
-0.020000
-0.020000
-0.020000
-0.030000
-0.020000
-0.000000
0.010000
0.000000
-0.000000
0.000000
0.010000
0.010000
-0.000000
-0.020000
-0.020000
-0.010000
0.000000
0.020000
0.030000
0.040000
0.030000
0.010000
0.000000
-0.010000
-0.020000
-0.020000
-0.010000
-0.000000
-0.000000
0.000000
0.010000
0.010000
-0.010000
-0.030000
-0.030000
-0.020000
-0.010000
0.000000
0.010000
0.020000
0.010000
0.000000
-0.000000
0.010000
0.010000
0.010000
0.010000
0.000000
-0.000000
0.000000
0.010000
0.030000
0.030000
0.030000
0.020000
0.010000
0.010000
0.020000
0.020000
0.030000
0.040000
0.030000
0.020000
0.010000
0.010000
0.020000
0.030000
0.020000
0.010000
-0.010000
-0.010000
-0.000000
-0.000000
-0.020000
-0.030000
-0.050000
-0.060000
-0.050000
-0.030000
-0.020000
-0.010000
-0.000000
0.000000
0.000000
-0.000000
-0.000000
0.000000
0.000000
-0.000000
-0.010000
0.000000
0.020000
0.030000
0.020000
0.000000
-0.010000
-0.010000
0.000000
0.010000
-0.000000
-0.010000
-0.010000
-0.010000
-0.010000
-0.010000
-0.000000
0.000000
0.010000
0.010000
0.010000
0.000000
-0.000000
-0.000000
-0.000000
-0.010000
-0.020000
-0.010000
-0.010000
0.000000
0.030000
0.070000
0.120000
0.180000
0.240000
0.290000
0.290000
0.260000
0.200000
0.150000
0.110000
0.070000
0.050000
0.030000
0.030000
0.030000
0.020000
-0.000000
-0.010000
-0.010000
-0.020000
-0.030000
-0.020000
-0.010000
-0.000000
-0.000000
-0.020000
-0.030000
-0.030000
-0.030000
-0.030000
-0.030000
-0.020000
-0.010000
0.000000
0.000000
-0.010000
-0.020000
-0.010000
-0.000000
0.000000
0.010000
0.010000
0.010000
0.010000
-0.000000
-0.000000
-0.010000
-0.010000
-0.030000
-0.050000
-0.050000
-0.040000
-0.020000
-0.010000
0.000000
0.000000
0.000000
-0.000000
-0.010000
-0.000000
0.010000
0.010000
0.000000
-0.010000
-0.000000
0.020000
0.040000
0.050000
0.040000
0.010000
-0.010000
-0.020000
-0.020000
-0.010000
0.000000
0.010000
0.000000
-0.020000
-0.020000
-0.010000
-0.000000
0.000000
0.000000
0.010000
0.020000
0.010000
-0.010000
-0.020000
0.000000
0.020000
0.030000
0.020000
0.010000
0.020000
0.020000
0.030000
0.020000
0.020000
0.020000
0.030000
0.030000
0.030000
0.030000
0.020000
0.020000
0.010000
-0.000000
-0.010000
-0.010000
-0.000000
0.000000
0.010000
0.020000
0.030000
0.020000
-0.000000
-0.030000
-0.040000
-0.030000
-0.010000
0.000000
0.010000
0.030000
0.040000
0.040000
0.020000
-0.000000
-0.010000
-0.000000
-0.000000
0.000000
0.000000
0.000000
-0.000000
-0.000000
0.000000
0.010000
0.010000
0.010000
0.020000
0.020000
0.020000
0.000000
-0.010000
0.010000
0.030000
0.040000
0.020000
-0.000000
-0.020000
-0.020000
-0.010000
0.010000
0.020000
0.030000
0.030000
0.050000
0.060000
0.060000
0.040000
0.030000
0.040000
0.050000
0.060000
0.050000
0.040000
0.030000
0.020000
0.020000
0.010000
0.000000
0.010000
0.010000
0.020000
0.000000
-0.010000
-0.010000
-0.000000
0.000000
-0.010000
-0.010000
0.010000
0.040000
0.040000
0.020000
-0.000000
-0.010000
-0.020000
-0.020000
-0.010000
-0.010000
-0.010000
-0.010000
-0.000000
0.010000
0.010000
0.010000
0.010000
0.000000
-0.010000
-0.010000
-0.010000
0.010000
0.030000
0.040000
0.020000
0.010000
0.010000
0.010000
0.010000
-0.010000
-0.030000
-0.030000
-0.030000
-0.010000
0.010000
0.010000
0.000000
-0.010000
-0.010000
-0.010000
-0.010000
0.020000
0.060000
0.120000
0.180000
0.250000
0.300000
0.300000
0.260000
0.220000
0.190000
0.170000
0.130000
0.080000
0.030000
0.010000
-0.000000
-0.010000
-0.020000
-0.030000
-0.030000
-0.040000
-0.040000
-0.030000
-0.020000
-0.010000
-0.010000
-0.010000
-0.010000
-0.020000
-0.030000
-0.040000
-0.040000
-0.040000
-0.040000
-0.040000
-0.020000
-0.010000
-0.010000
-0.020000
-0.020000
-0.010000
-0.010000
-0.020000
-0.030000
-0.010000
0.010000
0.010000
0.020000
0.030000
0.030000
0.020000
-0.010000
-0.030000
-0.040000
-0.030000
-0.010000
0.010000
0.010000
-0.010000
-0.020000
-0.030000
-0.030000
-0.030000
-0.030000
-0.050000
-0.060000
-0.050000
-0.030000
-0.010000
-0.010000
-0.010000
-0.010000
0.010000
0.020000
0.030000
0.020000
0.010000
-0.000000
-0.000000
0.010000
0.020000
0.030000
0.020000
0.010000
0.000000
-0.010000
-0.010000
-0.010000
-0.000000
-0.000000
-0.010000
-0.020000
-0.010000
-0.000000
-0.010000
-0.020000
-0.020000
-0.010000
-0.010000
-0.020000
-0.020000
-0.020000
-0.020000
-0.010000
0.010000
0.010000
0.010000
0.010000
0.010000
-0.000000
-0.020000
-0.030000
-0.020000
-0.010000
-0.000000
0.010000
0.010000
0.000000
0.020000
0.040000
0.040000
0.020000
0.000000
0.000000
-0.010000
-0.030000
-0.040000
-0.040000
-0.020000
-0.010000
-0.010000
-0.030000
-0.030000
-0.000000
0.010000
0.000000
-0.030000
-0.040000
-0.050000
-0.040000
-0.030000
-0.010000
0.000000
-0.010000
-0.020000
-0.020000
-0.020000
-0.030000
-0.020000
-0.010000
-0.010000
-0.020000
-0.020000
-0.010000
-0.000000
0.010000
0.010000
0.010000
0.010000
0.010000
0.020000
0.030000
0.040000
0.060000
0.060000
0.040000
0.010000
-0.000000
-0.000000
-0.010000
-0.030000
-0.040000
-0.030000
-0.010000
0.000000
0.010000
0.010000
0.000000
-0.010000
-0.030000
-0.030000
-0.020000
-0.000000
0.010000
0.020000
0.020000
-0.000000
-0.020000
-0.020000
-0.030000
-0.040000
-0.050000
-0.030000
-0.010000
0.000000
0.000000
-0.000000
-0.020000
-0.020000
-0.000000
0.010000
0.010000
-0.020000
-0.050000
-0.050000
-0.040000
-0.030000
-0.020000
-0.010000
0.010000
0.020000
0.010000
-0.010000
-0.040000
-0.070000
-0.070000
-0.050000
-0.030000
-0.030000
-0.040000
-0.040000
-0.050000
-0.040000
-0.020000
0.010000
0.040000
0.080000
0.150000
0.220000
0.270000
0.300000
0.300000
0.280000
0.220000
0.170000
0.140000
0.120000
0.080000
0.040000
0.010000
-0.000000
-0.020000
-0.040000
-0.060000
-0.070000
-0.050000
-0.030000
-0.030000
-0.040000
-0.030000
-0.020000
0.000000
0.010000
0.020000
0.020000
0.010000
-0.020000
-0.040000
-0.050000
-0.040000
-0.040000
-0.040000
-0.040000
-0.030000
-0.010000
-0.000000
0.000000
-0.000000
-0.010000
-0.040000
-0.050000
-0.040000
-0.030000
-0.010000
-0.010000
-0.000000
0.010000
0.010000
0.000000
-0.000000
-0.000000
-0.000000
-0.010000
-0.010000
-0.010000
-0.000000
-0.010000
-0.040000
-0.060000
-0.060000
-0.040000
-0.020000
-0.000000
0.000000
-0.010000
-0.020000
-0.030000
-0.010000
0.010000
0.010000
-0.000000
-0.010000
-0.000000
0.010000
0.000000
-0.010000
-0.020000
-0.020000
-0.010000
-0.000000
-0.000000
0.000000
0.010000
0.000000
-0.010000
-0.020000
-0.010000
-0.010000
-0.000000
-0.000000
-0.000000
0.010000
0.020000
0.050000
0.060000
0.050000
0.030000
0.020000
0.020000
0.010000
-0.010000
-0.030000
-0.040000
-0.040000
-0.030000
-0.020000
0.000000
0.010000
0.000000
-0.000000
0.010000
0.020000
-0.000000
-0.020000
-0.020000
-0.000000
0.020000
0.020000
0.000000
-0.010000
-0.000000
0.020000
0.040000
0.030000
0.010000
-0.020000
-0.020000
-0.010000
-0.000000
-0.000000
-0.000000
-0.000000
-0.000000
-0.000000
-0.010000
-0.020000
-0.020000
-0.020000
-0.010000
-0.010000
0.000000
0.010000
0.020000
0.030000
0.020000
-0.000000
-0.010000
0.000000
0.020000
0.040000
0.030000
0.020000
0.020000
0.020000
0.040000
0.060000
0.050000
0.040000
0.030000
0.030000
0.030000
0.030000
0.030000
0.030000
0.020000
0.000000
-0.000000
0.010000
0.020000
0.020000
-0.010000
-0.030000
-0.020000
0.000000
0.020000
0.040000
0.050000
0.050000
0.030000
0.020000
0.020000
0.020000
0.010000
0.010000
0.000000
-0.000000
-0.010000
-0.010000
-0.010000
0.000000
0.010000
0.000000
-0.000000
-0.000000
0.010000
0.020000
0.020000
0.010000
-0.000000
-0.010000
0.000000
0.030000
0.040000
0.020000
0.000000
0.010000
0.030000
0.040000
0.030000
0.020000
0.000000
-0.000000
-0.000000
0.010000
0.020000
0.010000
-0.010000
-0.010000
0.020000
0.080000
0.150000
0.240000
0.330000
0.390000
0.390000
0.360000
0.300000
0.240000
0.190000
0.140000
0.110000
0.080000
0.050000
0.020000
0.000000
0.000000
0.010000
0.000000
-0.000000
-0.010000
-0.010000
-0.000000
0.010000
0.010000
0.010000
-0.000000
-0.000000
0.010000
0.010000
-0.010000
-0.020000
-0.020000
-0.010000
-0.010000
0.000000
0.020000
0.050000
0.050000
0.020000
-0.010000
-0.000000
0.020000
0.020000
0.010000
0.000000
0.010000
0.010000
0.010000
0.020000
0.030000
0.040000
0.040000
0.020000
-0.000000
-0.020000
-0.020000
-0.000000
0.020000
0.040000
0.040000
0.030000
0.010000
-0.000000
0.010000
0.020000
0.040000
0.050000
0.070000
0.070000
0.050000
0.020000
-0.000000
-0.010000
0.000000
0.020000
0.020000
0.020000
0.010000
0.010000
0.030000
0.050000
0.050000
0.040000
0.030000
0.040000
0.040000
0.030000
0.010000
0.000000
0.010000
0.030000
0.050000
0.060000
0.060000
0.040000
0.020000
-0.010000
-0.020000
-0.010000
0.020000
0.040000
0.050000
0.050000
0.050000
0.050000
0.050000
0.040000
0.020000
0.020000
0.020000
0.040000
0.050000
0.040000
0.040000
0.030000
0.030000
0.030000
0.020000
0.010000
0.020000
0.030000
0.020000
0.010000
0.020000
0.040000
0.040000
0.040000
0.030000
0.020000
0.010000
0.000000
0.010000
0.020000
0.030000
0.030000
0.030000
0.030000
0.030000
0.030000
0.030000
0.040000
0.040000
0.040000
0.040000
0.040000
0.040000
0.040000
0.040000
0.030000
0.010000
0.000000
0.020000
0.030000
0.020000
0.010000
0.010000
0.030000
0.040000
0.050000
0.050000
0.050000
0.070000
0.080000
0.090000
0.100000
0.100000
0.080000
0.050000
0.040000
0.050000
0.060000
0.050000
0.020000
-0.000000
0.000000
0.010000
0.020000
0.020000
0.020000
0.020000
0.030000
0.040000
0.040000
0.040000
0.040000
0.050000
0.050000
0.040000
0.020000
0.010000
0.000000
0.010000
0.020000
0.030000
0.030000
0.030000
0.030000
0.040000
0.030000
0.020000
0.010000
0.010000
0.020000
0.020000
0.000000
-0.020000
-0.020000
-0.010000
0.010000
0.020000
0.030000
0.020000
0.020000
0.020000
0.020000
0.020000
0.020000
0.020000
0.020000
0.010000
0.010000
0.010000
0.010000
0.030000
0.050000
0.090000
0.120000
0.170000
0.250000
0.320000
0.370000
0.370000
0.330000
0.270000
0.200000
0.160000
0.130000
0.080000
0.040000
0.040000
0.050000
0.050000
0.020000
-0.010000
-0.010000
-0.010000
0.000000
0.020000
0.030000
0.020000
0.010000
0.010000
-0.010000
-0.030000
-0.030000
0.000000
0.030000
0.030000
0.020000
0.020000
0.030000
0.030000
0.020000
0.000000
-0.010000
-0.010000
-0.010000
-0.010000
-0.030000
-0.030000
-0.010000
0.040000
0.070000
0.060000
0.020000
-0.010000
-0.000000
0.020000
0.030000
0.020000
-0.010000
-0.020000
-0.000000
0.020000
0.030000
0.010000
-0.010000
-0.020000
-0.010000
-0.010000
-0.020000
-0.020000
-0.020000
-0.010000
0.010000
0.030000
0.050000
0.040000
0.020000
0.010000
0.020000
0.040000
0.040000
0.040000
0.030000
0.000000
-0.010000
0.000000
0.010000
0.010000
0.000000
0.020000
0.030000
0.020000
0.010000
0.010000
0.020000
0.020000
0.020000
0.020000
0.020000
0.020000
0.010000
0.020000
0.030000
0.050000
0.050000
0.050000
0.040000
0.020000
0.000000
0.010000
0.030000
0.040000
0.030000
0.020000
0.010000
0.020000
0.020000
0.020000
0.030000
0.040000
0.040000
0.030000
0.020000
0.010000
0.020000
0.030000
0.030000
0.030000
0.030000
0.040000
0.040000
0.030000
0.030000
0.040000
0.050000
0.030000
0.000000
-0.010000
0.000000
0.000000
-0.000000
0.010000
0.030000
0.030000
0.020000
0.010000
0.000000
0.000000
0.010000
0.020000
0.030000
0.020000
0.020000
0.020000
0.030000
0.030000
0.030000
0.030000
0.050000
0.060000
0.070000
0.070000
0.070000
0.070000
0.060000
0.050000
0.050000
0.060000
0.050000
0.040000
0.030000
0.030000
0.030000
0.020000
0.010000
0.010000
0.020000
0.020000
0.010000
0.010000
0.010000
0.020000
0.030000
0.030000
0.040000
0.040000
0.060000
0.070000
0.070000
0.060000
0.040000
0.030000
0.020000
0.010000
0.010000
0.010000
0.010000
0.010000
0.010000
0.010000
0.030000
0.030000
0.020000
0.010000
0.020000
0.040000
0.040000
0.030000
0.010000
-0.010000
-0.020000
-0.020000
-0.010000
0.000000
0.020000
0.010000
0.010000
0.010000
0.020000
0.030000
0.030000
0.030000
0.010000
-0.020000
-0.040000
-0.040000
-0.020000
0.010000
0.030000
0.070000
0.140000
0.230000
0.300000
0.350000
0.360000
0.330000
0.280000
0.220000
0.180000
0.140000
0.100000
0.060000
0.030000
0.020000
0.020000
0.020000
0.030000
0.020000
0.010000
-0.000000
-0.000000
0.010000
0.010000
0.010000
0.010000
0.020000
0.020000
0.010000
0.000000
-0.000000
0.000000
0.020000
0.040000
0.030000
0.010000
-0.010000
-0.020000
-0.030000
-0.030000
-0.010000
0.010000
0.020000
0.020000
0.030000
0.030000
0.030000
0.010000
-0.000000
0.010000
0.010000
0.010000
-0.000000
-0.000000
0.010000
0.020000
0.030000
0.030000
0.020000
0.010000
0.000000
0.010000
0.020000
0.030000
0.020000
0.000000
0.000000
0.010000
0.030000
0.030000
0.020000
0.000000
-0.010000
-0.020000
-0.010000
0.000000
0.020000
0.020000
0.020000
0.020000
0.010000
0.020000
0.020000
0.020000
0.010000
0.010000
0.010000
0.020000
0.020000
0.030000
0.040000
0.060000
0.070000
0.060000
0.050000
0.040000
0.040000
0.050000
0.040000
0.030000
0.020000
0.040000
0.060000
0.070000
0.060000
0.040000
0.030000
0.020000
0.010000
0.000000
-0.000000
-0.000000
0.010000
0.020000
0.030000
0.030000
0.030000
0.010000
0.000000
0.000000
0.000000
0.010000
0.030000
0.050000
0.050000
0.030000
0.010000
0.000000
-0.000000
-0.010000
-0.020000
-0.020000
-0.010000
0.010000
0.010000
0.010000
-0.010000
-0.020000
-0.000000
0.020000
0.030000
0.020000
0.020000
0.020000
0.020000
0.030000
0.030000
0.030000
0.020000
-0.000000
-0.010000
-0.010000
-0.000000
-0.000000
-0.010000
-0.020000
-0.010000
0.020000
0.050000
0.060000
0.060000
0.050000
0.050000
0.050000
0.050000
0.050000
0.050000
0.050000
0.040000
0.030000
0.030000
0.030000
0.020000
0.020000
0.020000
0.020000
0.020000
0.020000
0.010000
-0.000000
0.000000
0.010000
0.010000
0.010000
0.010000
0.010000
0.010000
0.010000
0.010000
0.020000
0.030000
0.030000
0.010000
0.010000
0.010000
0.010000
0.000000
-0.010000
-0.010000
-0.010000
-0.010000
0.010000
0.020000
0.010000
-0.010000
-0.020000
-0.010000
-0.000000
0.010000
0.020000
0.020000
0.020000
0.010000
0.010000
0.010000
-0.000000
-0.010000
-0.010000
-0.010000
-0.010000
-0.010000
-0.010000
-0.000000
0.000000
0.010000
0.050000
0.130000
0.210000
0.270000
0.310000
0.320000
0.280000
0.220000
0.180000
0.150000
0.110000
0.070000
0.050000
0.040000
0.020000
-0.010000
-0.020000
-0.010000
-0.010000
0.000000
0.010000
0.020000
0.020000
-0.000000
-0.010000
-0.000000
0.020000
0.030000
0.030000
0.020000
0.000000
-0.010000
-0.020000
-0.020000
-0.000000
0.010000
0.020000
0.020000
0.010000
-0.000000
-0.010000
-0.010000
-0.020000
-0.010000
-0.010000
-0.010000
-0.020000
-0.020000
-0.000000
0.000000
-0.010000
-0.030000
-0.020000
-0.000000
-0.000000
-0.010000
-0.020000
-0.020000
-0.020000
-0.030000
-0.020000
-0.000000
0.010000
0.020000
0.020000
0.030000
0.040000
0.040000
0.040000
0.040000
0.040000
0.030000
0.030000
0.030000
0.030000
0.030000
0.020000
0.010000
0.010000
0.020000
0.030000
0.030000
0.010000
0.010000
0.020000
0.030000
0.040000
0.040000
0.030000
0.010000
0.010000
0.020000
0.030000
0.020000
-0.000000
-0.010000
-0.010000
-0.010000
-0.010000
0.010000
0.030000
0.030000
0.030000
0.020000
0.030000
0.030000
0.020000
0.010000
0.020000
0.020000
0.030000
0.020000
0.020000
0.010000
0.010000
0.010000
0.010000
0.020000
0.010000
0.000000
0.010000
0.020000
0.030000
0.040000
0.040000
0.030000
-0.000000
-0.020000
-0.010000
0.010000
0.020000
0.000000
-0.010000
-0.020000
-0.030000
-0.020000
0.000000
0.030000
0.030000
0.010000
-0.010000
-0.010000
0.000000
0.010000
0.010000
-0.010000
-0.030000
-0.030000
-0.010000
0.010000
0.030000
0.040000
0.040000
0.040000
0.050000
0.080000
0.080000
0.070000
0.050000
0.050000
0.050000
0.050000
0.050000
0.060000
0.060000
0.060000
0.040000
0.020000
0.010000
0.000000
-0.010000
-0.010000
-0.020000
-0.010000
0.000000
0.010000
0.010000
0.010000
0.010000
0.010000
0.020000
0.020000
0.010000
0.010000
0.010000
0.020000
0.020000
0.020000
0.020000
0.020000
0.020000
0.010000
0.000000
-0.010000
-0.020000
-0.010000
0.000000
0.010000
0.010000
0.010000
0.020000
0.020000
0.030000
0.030000
0.030000
0.020000
0.000000
0.010000
0.030000
0.040000
0.050000
0.040000
0.030000
0.020000
0.020000
0.020000
-0.000000
-0.020000
-0.040000
-0.030000
-0.020000
-0.010000
0.010000
0.040000
0.100000
0.170000
0.230000
0.290000
0.310000
0.290000
0.250000
0.190000
0.150000
0.130000
0.130000
0.120000
0.100000
0.070000
0.040000
0.020000
0.020000
0.020000
0.020000
0.020000
0.010000
0.010000
0.000000
0.000000
0.010000
0.010000
0.000000
-0.010000
-0.010000
0.000000
0.010000
0.010000
0.020000
0.030000
0.050000
0.050000
0.040000
0.020000
0.010000
0.010000
0.010000
0.000000
0.000000
0.000000
-0.010000
-0.030000
-0.030000
-0.000000
0.020000
0.020000
0.010000
-0.010000
-0.010000
-0.000000
0.010000
0.020000
0.020000
0.000000
-0.000000
0.010000
0.030000
0.050000
0.050000
0.050000
0.040000
0.030000
0.020000
0.040000
0.050000
0.040000
0.020000
-0.000000
-0.010000
-0.020000
0.000000
0.030000
0.050000
0.060000
0.050000
0.050000
0.060000
0.070000
0.050000
0.040000
0.030000
0.030000
0.030000
0.030000
0.030000
0.040000
0.030000
0.030000
0.030000
0.030000
0.040000
0.050000
0.050000
0.030000
0.030000
0.050000
0.050000
0.030000
0.000000
0.010000
0.020000
0.040000
0.050000
0.050000
0.050000
0.050000
0.060000
0.060000
0.050000
0.050000
0.050000
0.050000
0.060000
0.060000
0.050000
0.040000
0.030000
0.010000
0.000000
-0.000000
0.010000
0.020000
0.030000
0.020000
-0.000000
-0.020000
-0.020000
-0.010000
-0.000000
0.020000
0.030000
0.040000
0.040000
0.030000
0.010000
0.000000
-0.000000
-0.000000
0.000000
0.010000
0.020000
0.010000
-0.010000
-0.010000
-0.000000
-0.000000
0.000000
0.020000
0.040000
0.050000
0.050000
0.050000
0.050000
0.050000
0.060000
0.060000
0.050000
0.040000
0.040000
0.050000
0.050000
0.050000
0.030000
0.010000
0.010000
0.020000
0.020000
0.010000
0.000000
0.020000
0.040000
0.040000
0.030000
0.030000
0.040000
0.030000
0.010000
0.000000
0.020000
0.050000
0.050000
0.030000
0.010000
0.000000
0.000000
-0.000000
-0.010000
-0.010000
-0.020000
-0.010000
-0.000000
0.010000
0.030000
0.030000
0.020000
0.000000
-0.020000
-0.010000
0.010000
0.020000
0.040000
0.050000
0.060000
0.030000
0.000000
-0.010000
-0.010000
-0.010000
-0.010000
-0.010000
-0.010000
0.000000
0.010000
0.020000
0.010000
-0.000000
-0.010000
0.010000
0.060000
0.110000
0.150000
0.200000
0.250000
0.290000
0.300000
0.270000
0.210000
0.150000
0.100000
0.080000
0.080000
0.080000
0.070000
0.060000
0.050000
0.030000
0.020000
0.010000
0.000000
-0.010000
-0.000000
0.010000
0.010000
-0.010000
-0.030000
-0.030000
0.000000
0.030000
0.030000
0.010000
-0.020000
-0.030000
-0.030000
-0.010000
-0.000000
0.000000
-0.010000
-0.030000
-0.030000
-0.030000
-0.010000
-0.020000
-0.040000
-0.050000
-0.040000
-0.020000
0.000000
0.010000
-0.000000
-0.010000
-0.030000
-0.030000
-0.010000
-0.000000
-0.000000
-0.010000
0.000000
0.020000
0.020000
0.010000
-0.010000
-0.030000
-0.030000
-0.040000
-0.040000
-0.040000
-0.030000
-0.020000
-0.010000
-0.000000
0.000000
-0.010000
-0.010000
-0.000000
0.010000
0.010000
0.000000
-0.000000
0.000000
0.010000
-0.000000
-0.020000
-0.020000
-0.020000
-0.010000
-0.010000
-0.010000
-0.010000
-0.010000
-0.000000
0.010000
0.030000
0.030000
0.030000
0.010000
-0.030000
-0.040000
-0.020000
0.010000
0.040000
0.040000
0.030000
0.040000
0.040000
0.030000
-0.000000
-0.020000
-0.020000
-0.010000
-0.020000
-0.030000
-0.030000
-0.030000
-0.020000
-0.000000
0.020000
0.020000
0.010000
-0.000000
-0.020000
-0.030000
-0.030000
-0.010000
-0.020000
-0.030000
-0.050000
-0.050000
-0.040000
-0.020000
-0.010000
0.000000
0.000000
-0.010000
-0.010000
-0.010000
0.000000
0.010000
-0.000000
-0.010000
-0.000000
0.000000
-0.010000
-0.030000
-0.040000
-0.020000
0.000000
-0.010000
-0.030000
-0.040000
-0.040000
-0.030000
-0.020000
-0.010000
-0.010000
-0.000000
0.010000
0.050000
0.080000
0.080000
0.050000
0.020000
0.020000
0.030000
0.010000
-0.000000
0.000000
0.000000
-0.010000
-0.010000
-0.010000
-0.010000
-0.030000
-0.040000
-0.030000
-0.010000
-0.010000
-0.010000
-0.030000
-0.040000
-0.030000
-0.020000
-0.030000
-0.030000
-0.030000
-0.010000
-0.010000
-0.030000
-0.040000
-0.020000
0.000000
0.010000
-0.000000
-0.020000
-0.020000
-0.020000
-0.020000
-0.020000
-0.020000
-0.010000
-0.010000
-0.010000
-0.010000
-0.010000
-0.020000
-0.030000
-0.040000
-0.050000
-0.040000
-0.020000
0.010000
0.020000
0.020000
0.000000
-0.010000
-0.020000
-0.020000
-0.010000
-0.020000
-0.040000
-0.040000
-0.020000
0.010000
0.040000
0.060000
0.080000
0.130000
0.200000
0.270000
0.310000
0.310000
0.260000
0.200000
0.160000
0.130000
0.110000
0.080000
0.050000
0.030000
0.010000
0.010000
-0.000000
-0.020000
-0.040000
-0.060000
-0.060000
-0.040000
-0.030000
-0.020000
-0.020000
-0.040000
-0.060000
-0.070000
-0.060000
-0.060000
-0.050000
-0.030000
-0.030000
-0.040000
-0.050000
-0.050000
-0.050000
-0.050000
-0.040000
-0.050000
-0.060000
-0.060000
-0.050000
-0.030000
-0.030000
-0.040000
-0.060000
-0.060000
-0.050000
-0.050000
-0.040000
-0.030000
-0.020000
-0.030000
-0.040000
-0.020000
-0.010000
-0.020000
-0.030000
-0.040000
-0.050000
-0.070000
-0.060000
-0.030000
-0.010000
-0.010000
-0.000000
-0.000000
-0.020000
-0.030000
-0.030000
-0.020000
-0.030000
-0.030000
-0.020000
-0.020000
-0.020000
-0.010000
-0.010000
-0.010000
-0.010000
-0.010000
0.010000
0.020000
0.030000
0.020000
0.020000
0.000000
-0.020000
-0.030000
-0.040000
-0.050000
-0.070000
-0.070000
-0.060000
-0.030000
-0.010000
-0.020000
-0.030000
-0.030000
-0.020000
-0.020000
-0.020000
-0.020000
-0.010000
-0.010000
-0.020000
-0.030000
-0.030000
-0.020000
-0.020000
-0.030000
-0.040000
-0.050000
-0.030000
-0.020000
-0.030000
-0.040000
-0.040000
-0.040000
-0.030000
-0.030000
-0.030000
-0.020000
-0.010000
-0.010000
-0.020000
-0.020000
-0.020000
-0.010000
-0.010000
-0.020000
-0.040000
-0.050000
-0.040000
-0.040000
-0.030000
-0.030000
-0.020000
-0.030000
-0.040000
-0.040000
-0.030000
-0.020000
-0.030000
-0.060000
-0.070000
-0.060000
-0.050000
-0.040000
-0.020000
0.010000
0.000000
-0.020000
-0.010000
0.010000
0.020000
-0.000000
-0.010000
-0.010000
-0.010000
-0.010000
-0.020000
-0.030000
-0.030000
-0.030000
-0.030000
-0.040000
-0.050000
-0.050000
-0.050000
-0.040000
-0.030000
-0.030000
-0.030000
-0.030000
-0.040000
-0.040000
-0.020000
-0.010000
-0.030000
-0.060000
-0.080000
-0.070000
-0.060000
-0.050000
-0.060000
-0.050000
-0.020000
0.000000
-0.010000
-0.040000
-0.070000
-0.070000
-0.050000
-0.040000
-0.040000
-0.060000
-0.080000
-0.070000
-0.050000
-0.040000
-0.040000
-0.040000
-0.050000
-0.060000
-0.070000
-0.060000
-0.050000
-0.030000
-0.040000
-0.040000
-0.050000
-0.070000
-0.080000
-0.060000
-0.040000
-0.030000
-0.030000
0.000000
0.080000
0.170000
0.250000
0.310000
0.320000
0.290000
0.240000
0.210000
0.180000
0.130000
0.070000
0.010000
-0.020000
-0.030000
-0.020000
-0.030000
-0.040000
-0.060000
-0.070000
-0.070000
-0.060000
-0.060000
-0.060000
-0.050000
-0.040000
-0.040000
-0.040000
-0.060000
-0.070000
-0.070000
-0.070000
-0.070000
-0.080000
-0.100000
-0.100000
-0.080000
-0.070000
-0.070000
-0.070000
-0.070000
-0.070000
-0.070000
-0.070000
-0.060000
-0.070000
-0.080000
-0.090000
-0.080000
-0.080000
-0.080000
-0.080000
-0.080000
-0.080000
-0.080000
-0.080000
-0.070000
-0.070000
-0.070000
-0.060000
-0.040000
-0.010000
-0.010000
-0.020000
-0.030000
-0.050000
-0.060000
-0.050000
-0.040000
-0.040000
-0.050000
-0.060000
-0.070000
-0.070000
-0.070000
-0.070000
-0.080000
-0.080000
-0.070000
-0.030000
-0.010000
-0.020000
-0.040000
-0.050000
-0.050000
-0.040000
-0.020000
-0.010000
-0.030000
-0.040000
-0.050000
-0.040000
-0.040000
-0.040000
-0.050000
-0.060000
-0.060000
-0.060000
-0.050000
-0.040000
-0.040000
-0.040000
-0.040000
-0.020000
-0.020000
-0.030000
-0.060000
-0.090000
-0.090000
-0.070000
-0.050000
-0.030000
-0.030000
-0.030000
-0.030000
-0.020000
-0.020000
-0.020000
-0.020000
-0.020000
-0.030000
-0.030000
-0.030000
-0.040000
-0.050000
-0.050000
-0.050000
-0.050000
-0.040000
-0.040000
-0.040000
-0.030000
-0.040000
-0.050000
-0.070000
-0.060000
-0.050000
-0.030000
-0.030000
-0.040000
-0.050000
-0.050000
-0.050000
-0.040000
-0.030000
-0.040000
-0.050000
-0.080000
-0.090000
-0.080000
-0.050000
-0.030000
-0.020000
-0.030000
-0.030000
-0.040000
-0.030000
-0.010000
0.010000
0.020000
0.020000
0.020000
0.020000
0.010000
-0.000000
-0.000000
0.000000
0.000000
0.000000
-0.010000
-0.030000
-0.040000
-0.040000
-0.030000
-0.030000
-0.040000
-0.040000
-0.050000
-0.040000
-0.030000
-0.020000
-0.020000
-0.030000
-0.040000
-0.040000
-0.050000
-0.060000
-0.040000
-0.020000
-0.020000
-0.030000
-0.030000
-0.030000
-0.030000
-0.040000
-0.040000
-0.040000
-0.020000
0.000000
0.020000
0.020000
0.000000
-0.010000
-0.030000
-0.040000
-0.040000
-0.040000
-0.030000
-0.030000
-0.030000
-0.030000
-0.020000
-0.020000
-0.030000
-0.040000
-0.040000
-0.060000
-0.080000
-0.080000
-0.070000
-0.070000
-0.070000
-0.060000
-0.040000
-0.010000
0.030000
0.100000
0.180000
0.260000
0.300000
0.300000
0.260000
0.220000
0.170000
0.140000
0.090000
0.050000
0.030000
0.020000
0.010000
-0.010000
-0.010000
-0.000000
-0.010000
-0.020000
-0.030000
-0.020000
-0.020000
-0.030000
-0.040000
-0.040000
-0.040000
-0.050000
-0.060000
-0.060000
-0.030000
0.000000
0.010000
-0.020000
-0.040000
-0.060000
-0.060000
-0.050000
-0.040000
-0.020000
-0.020000
-0.020000
-0.030000
-0.030000
-0.010000
-0.010000
-0.020000
-0.030000
-0.040000
-0.040000
-0.040000
-0.050000
-0.050000
-0.040000
-0.030000
-0.030000
-0.030000
-0.030000
-0.030000
-0.030000
-0.040000
-0.030000
-0.030000
-0.030000
-0.020000
-0.020000
-0.010000
-0.030000
-0.050000
-0.050000
-0.020000
0.000000
0.010000
-0.000000
-0.010000
-0.000000
-0.010000
-0.030000
-0.040000
-0.040000
-0.030000
-0.010000
-0.010000
0.000000
0.010000
0.020000
0.030000
0.040000
0.040000
0.010000
-0.010000
-0.010000
0.010000
0.020000
0.010000
0.010000
0.000000
-0.010000
-0.020000
-0.020000
-0.010000
-0.010000
-0.010000
-0.020000
-0.010000
0.010000
0.020000
0.020000
0.010000
0.010000
0.010000
0.020000
0.020000
0.010000
0.010000
0.020000
0.030000
0.030000
0.020000
0.000000
-0.000000
0.010000
0.020000
0.030000
0.030000
0.020000
-0.000000
-0.030000
-0.030000
-0.020000
-0.010000
-0.010000
-0.010000
-0.010000
-0.010000
-0.010000
-0.020000
-0.010000
-0.010000
-0.010000
-0.030000
-0.040000
-0.030000
-0.020000
-0.020000
-0.020000
-0.020000
-0.010000
-0.010000
0.010000
0.010000
-0.000000
-0.020000
-0.030000
-0.010000
0.010000
0.030000
0.040000
0.030000
0.040000
0.060000
0.080000
0.070000
0.040000
0.030000
0.020000
0.020000
0.020000
0.020000
0.020000
0.000000
-0.020000
-0.040000
-0.040000
-0.040000
-0.030000
-0.010000
0.010000
0.020000
0.020000
0.010000
0.010000
0.010000
0.010000
-0.000000
-0.000000
0.000000
0.010000
0.020000
0.020000
0.040000
0.040000
0.020000
-0.010000
-0.030000
-0.030000
-0.020000
-0.010000
-0.010000
-0.010000
-0.020000
-0.030000
-0.030000
-0.030000
-0.020000
0.000000
0.020000
0.020000
-0.000000
-0.020000
-0.010000
-0.000000
0.000000
-0.000000
-0.000000
-0.010000
-0.020000
-0.040000
-0.040000
-0.030000
-0.030000
-0.020000
-0.000000
0.030000
0.060000
0.120000
0.190000
0.250000
0.290000
0.280000
0.250000
0.200000
0.150000
0.100000
0.060000
0.040000
0.030000
0.020000
0.010000
-0.010000
-0.010000
-0.000000
0.000000
0.000000
-0.000000
-0.010000
-0.030000
-0.040000
-0.040000
-0.020000
-0.010000
-0.000000
-0.010000
-0.020000
-0.020000
-0.010000
-0.010000
-0.020000
-0.020000
-0.020000
-0.020000
-0.020000
-0.020000
-0.020000
-0.020000
-0.010000
-0.000000
0.010000
0.020000
0.020000
0.020000
0.020000
0.020000
0.000000
-0.010000
-0.020000
-0.020000
-0.020000
-0.020000
-0.030000
-0.030000
-0.030000
-0.000000
0.020000
0.020000
0.010000
-0.000000
-0.000000
0.010000
0.010000
0.010000
0.000000
0.010000
0.020000
0.020000
0.010000
-0.000000
0.010000
0.010000
0.010000
0.010000
0.020000
0.020000
0.020000
0.020000
0.020000
0.010000
0.000000
-0.000000
-0.010000
-0.020000
-0.040000
-0.030000
-0.010000
0.010000
0.020000
0.020000
0.030000
0.030000
0.040000
0.030000
0.030000
0.020000
0.020000
0.030000
0.050000
0.050000
0.030000
0.000000
-0.010000
-0.010000
0.000000
0.010000
0.020000
0.020000
0.020000
0.030000
0.030000
0.020000
0.020000
0.010000
0.010000
0.000000
0.010000
0.020000
0.020000
0.020000
0.010000
-0.010000
-0.030000
-0.030000
-0.010000
0.020000
0.040000
0.040000
0.030000
0.020000
0.010000
-0.000000
-0.000000
0.000000
0.010000
0.010000
0.010000
-0.000000
-0.010000
-0.010000
-0.000000
0.000000
0.010000
0.020000
0.010000
-0.000000
-0.010000
-0.000000
0.010000
0.030000
0.030000
0.030000
0.030000
0.030000
0.030000
0.040000
0.050000
0.060000
0.060000
0.050000
0.040000
0.020000
0.020000
0.020000
0.030000
0.030000
0.020000
0.020000
0.020000
0.020000
0.030000
0.030000
0.020000
0.000000
-0.000000
0.010000
0.030000
0.040000
0.050000
0.050000
0.040000
0.020000
0.020000
0.030000
0.030000
0.020000
0.010000
0.000000
0.010000
0.010000
0.000000
-0.000000
0.000000
0.010000
0.020000
0.030000
0.020000
0.010000
-0.000000
-0.010000
-0.000000
0.000000
0.010000
0.010000
0.020000
0.020000
0.030000
0.020000
0.000000
-0.010000
-0.020000
-0.010000
-0.010000
-0.010000
0.000000
0.000000
-0.010000
-0.020000
-0.020000
-0.020000
0.000000
0.050000
0.110000
0.170000
0.230000
0.270000
0.270000
0.240000
0.190000
0.150000
0.120000
0.090000
0.050000
0.020000
0.000000
0.020000
0.050000
0.070000
0.040000
0.010000
0.000000
0.010000
0.020000
0.020000
0.020000
0.020000
0.020000
0.020000
0.020000
0.020000
0.020000
0.010000
0.000000
-0.010000
0.000000
0.020000
0.020000
0.000000
-0.010000
-0.000000
0.000000
-0.010000
-0.030000
-0.040000
-0.030000
-0.020000
-0.010000
-0.000000
-0.000000
-0.010000
-0.020000
-0.020000
-0.000000
0.000000
0.010000
0.010000
0.020000
0.020000
0.010000
-0.010000
-0.020000
-0.030000
-0.020000
-0.020000
-0.000000
0.010000
0.030000
0.030000
0.030000
0.030000
0.020000
0.010000
0.000000
-0.000000
0.000000
-0.000000
-0.010000
-0.000000
0.020000
0.020000
0.020000
0.010000
0.010000
0.010000
0.010000
0.000000
-0.000000
0.010000
0.020000
0.020000
0.030000
0.040000
0.040000
0.040000
0.040000
0.040000
0.030000
0.010000
0.010000
0.020000
0.030000
0.030000
0.020000
0.010000
0.020000
0.030000
0.030000
0.030000
0.020000
0.020000
0.020000
0.020000
0.020000
0.030000
0.040000
0.040000
0.020000
-0.000000
-0.030000
-0.040000
-0.030000
-0.020000
-0.030000
-0.040000
-0.040000
-0.010000
0.010000
0.020000
0.020000
0.010000
-0.010000
-0.010000
-0.000000
0.010000
0.020000
0.020000
0.020000
0.010000
0.000000
